-3.952
0.88
-1
-0.24
-1
-1.784
-2.792
-3.064
-1.36
-1
-3.176
-3.016
-0.552
-2.2
-0.648
-0.216
-3.488
-1.792
-0.48
-2.552
0.808
-3.936
-4.904
-0.92
-2.744
-1
-1.328
-1.728
-3
-1.896
-1.08
-0.536
-4.952
0.2
-1.568
-0.968
0.704
-2.504
-1.8
1.088
-1.896
0.832
-1.008
-2.96
-2.912
-2.728
-1.816
1
-1
0.36
-1
-2.424
1.056
-1.4
-1.568
-0.616
-4.664
-0.136
-0.48
-1.424
0.712
-1.096
-0.048
-1
-2.856
-1.192
-0.856
-2.616
0.04
-0.712
-2.664
-1
-2.136
-2.4
-2.36
-2.424
-1.12
-1.968
-1.16
-0.768
-4.632
-1.864
-1.176
-4.76
-1.024
-0.888
-0.52
-1
-3.4
-1.496
-0.704
-4
0.216
-0.12
-2.976
-1.464
-1.832
-1
0.04
-1.912
-1
-2.648
-2
-1
-1.096
-1
-1.064
-3.664
-0.8
-1.376
-1.256
-0.696
-1.352
-1.6
-0.104
-2.992
-2.456
0.368
-2.2
0.312
-1.528
-3.352
-0.504
-1.12
-1
-2.072
-1
-0.216
-0.88
-2
0.216
-2.472
0.064
-1.64
-2.816
0
-0.992
-3.312
1.4
-1
-1.696
0.72
-3.376
-1.84
-3
-2.744
0.936
-3.904
-2.92
-1.872
-2.648
-1.448
-3.184
-2.64
-1.736
-2.336
-1.464
0.024
-2.12
-0.216
-1.064
-1.816
1.256
-1.8
-1
-0.104
-1
0.984
-0.96
-2
-2.136
-3.08
0.536
-0.44
-2.328
-0.504
-1.576
-1.888
-2.04
-2.728
-0.232
-1.672
-3.712
-3.8
0.232
-4.568
1.712
-1
1
-1
-1.904
-2.144
-1.616
-3
-0.288
-1.664
-0.536
-1.432
-2.56
-1.416
-0.848
-3
-0.344
-3.28
-3.072
-1.736
-1
-2.824
-1
-3
-1.112
-0.688
-1.304
-0.8
-3.504
-1.592
-1.656
-3.392
-1
-1.072
-2.144
0.336
-1
-2.36
-1.816
-3.552
-0.176
-1.128
-1.76
-0.064
-4.936
-2.256
1
-4.52
-1
-1.976
-1.304
-0.704
-2.6
-1.24
-1
-1.544
-0.408
-2.08
-2
-0.584
-1.648
-3.496
-1.12
-0.928
-0.024
-2.928
-1
2.4
-2.664
-1.432
-0.736
-1.312
0.64
-2.776
-1.912
-1.504
-3.344
-1.2
-1.352
-3.088
0.768
-1.208
-1.52
0.328
-2.064
1
1.872
-3.84
1.104
-3.472
-2.776
-1.272
-3.36
-1.368
1
-2.392
-0.536
-1.76
-1.608
-0.032
-2.184
-0.248
-1.6
-2.696
-1
-1.056
-1.976
0.84
-4.384
2.048
-2.632
-2.536
-1
-0.344
-1.376
-1.152
-0.64
-1.6
-1.296
-1.384
-0.328
-1.712
-3.28
0.424
-2.712
-1
-0.144
-2
1.856
-0.712
-3.288
0.04
-1.76
-2.576
-1.336
-3.384
-1.432
-1.52
-2.528
-0.152
-2.128
-0.016
2.32
-3.84
-2.632
-1.68
-3.736
-1.96
-0.976
-1.056
-1
-3.544
-0.6
-1.008
-2
-0.376
-4.04
-1.76
0.464
-3
-1.752
0.528
-3.04
0.456
-3.776
-1.296
0.872
-2
-1
-0.984
-3.808
2.552
-3.36
-1.416
0
-0.392
-0.112
-2.8
-3
-1.992
-2.824
-1.368
1.28
-4.376
-1.944
-1.648
-0.664
0.12
-2.144
-2.928
-0.024
-1
-1
-1
-1.216
0.208
-3.752
-1.72
-1.592
-0.176
0.992
0.656
-2.8
-1.296
0.392
-1.744
0.584
-3.16
-3.664
-0.32
-1.984
-1.128
-3.76
-2.744
1.472
-4.88
0.456
-2.04
-1.632
1
-0.608
0.952
-0.56
-1.216
-2.656
-1.888
-1.752
-1.4
-2.152
-2.792
-1
-2.992
-1.04
1.824
-2.864
-1
0.304
-1.56
-1
-1.752
-0.848
-0.112
-1.04
-1
-0.768
-4.656
-2.712
-1
-0.232
-1.288
-2.904
-0.048
-3
-3.904
0.616
-3.568
0.04
-1.28
-1.712
-2.008
-0.848
-2.296
0.04
-2.056
-1.304
-1.376
-1.672
-0.72
-1
-1.816
2.32
-1.088
-0.96
1.96
-1
-0.208
-1.544
-2
-1
-2.408
-1.688
0.568
-2.88
-1.024
-1.464
-3.584
0.264
-3
-1.728
-0.12
-2.648
-1.872
-0.4
-1.872
-1
-0.936
-1
0.68
-3.584
-1.256
-2.088
-2.704
1.2
-2.552
-2.488
-0.456
-1.816
-1.92
-1.936
-3.208
-1.216
-1.504
-1.64
0.64
-1.976
-1
-0.784
-1
0.328
-3.488
-3.528
0.688
-1
-2.592
-2.72
-1.504
-0.448
-1.6
0.704
-1
-3
-1.376
-0.16
-4.552
2.616
-1
-1.032
-1.68
-3.744
0.296
-0.552
-2
-1.64
-0.264
0
-2.536
-1.976
-1.56
0.432
-3.968
-1.704
-2.752
-0.8
-0.456
-1
-1.888
-1.992
-2.12
-1.176
0.456
-3.632
0.536
-3.72
1.032
-3.12
-2.424
-0.528
-3.04
-0.568
0.232
-0.328
-1
-1.24
-3.232
2.424
-3.192
-1.904
3
-5.808
0.616
0.856
-4.808
-1.76
-3.848
0.328
0.232
-1.432
-1.52
-1.944
-2.152
0.872
0.032
-2.88
-0.16
-2.632
-0.136
-0.352
-3.76
-1.024
-4.776
-1.312
0.544
-3.4
-0.248
-1.112
-2.344
-0.568
-4.24
-1.976
-0.392
-1.416
-0.792
-1.64
-2.456
1.328
-1.352
-0.744
-1
-3.032
-2
-2.744
-3.664
1.52
-0.376
-2
-1.304
-1.648
-1.2
-0.656
-3.496
-2
-2
-3.56
-0.312
-2.264
-1.784
-1.168
-3
-0.928
-1.024
-0.048
0.928
-3.64
-0.672
-0.568
-3
-2.312
-0.36
-3.816
-0.176
-2.992
-2.104
-1.4
-2.648
2.304
0.744
-2.376
-1.32
-3.776
-0.936
-0.032
-2.936
1.68
-1
-2.648
0.552
-4.184
-1.96
0.104
-3
-1.856
-1.952
-1.68
-1.176
-2
-2.704
-2.248
-4.4
-1
-0.312
-0.776
-1
-2.8
0.648
-0.592
-4.264
-1.464
-2.16
-3.016
-1.376
-2.152
-0.944
-2
-2.136
-0.08
-2.008
-0.848
-1.76
-1.384
-1.568
-2.384
-3.904
-2
-0.856
-2.096
0.856
-2.616
-1.2
-1.288
-1
-0.232
-2.704
-1.96
1.528
-1.424
-1.496
-0.656
-1.72
-1.768
-1.552
-2.456
-1.088
-2.92
-2
-1
-2.688
1.24
-2.6
-2.504
2.296
-2.968
-1.392
-0.56
-1.512
-0.072
-0.248
-1.16
0.36
-1.728
-0.104
-2
-2
0.08
-2.032
-3.968
-0.128
-2.776
-1
-1.584
-4.72
-0.304
-2.352
-1.6
-2.104
0.488
-0.544
-0.408
-0.92
-0.688
-0.056
-1.136
3.992
-3
-1.928
-1.072
-0.928
0.712
-2.52
-2
1
-1.736
-2.248
0.8
0.408
-1.368
-1.496
-1.552
-1
-3
-1.088
-0.256
-2
-0.32
-2.336
-2.808
1
-0.872
0.6
-1
-4.824
-1.12
-1.456
-1.64
1
-0.584
-0.928
-1.488
-2.56
-1.216
-2.344
-3.704
-1.496
-1.2
-2.392
0.688
-3.832
1
-1.88
-4.648
3.048
-3.08
-1.232
-0.16
-1
-0.504
-2.728
-2.056
-0.48
-2.296
-2.464
-1.336
-3.712
-0.52
-1.768
0.712
-0.904
-4.904
-1
-0.144
-2.712
-1.576
-4.848
-2
-0.288
-2.992
-2.536
0.864
-1.96
-1.112
-0.696
-1.624
1.016
-1.56
0.232
0.632
-3.592
-1
1.92
-2.992
-0.056
-0.792
-0.304
1.4
-0.496
-0.888
-0.656
-2.784
1.56
-0.56
0.928
-1
-2.264
-1.68
1.096
-0.104
0.176
-2.256
-0.84
0.936
-3.952
-2.128
-1.888
-2.84
-1
-1.232
0
-1
-1.8
-1.448
1.984
-0.544
-1
-2.72
-2.064
1.416
-2.216
-1.832
-1.36
-3.856
-1.024
-3.88
-1.288
-0.12
-3.496
0.352
-0.472
-0.624
0.28
-0.184
-2
-1
-2.344
-1.4
-1.408
-2.392
1
-1
-2.68
-1.112
-1.064
-0.968
0.936
-1.16
2.232
-1.824
-1.448
0.456
-3.04
-0.736
-1.584
-4
-2.024
-2.32
-0.824
-1.688
-3.592
-1.752
-1.4
-4.392
-2
-0.28
-4.96
-0.12
-3.736
-2.272
-1
-2
-1.72
-1.328
-1.128
-0.576
-2.112
0.92
2.704
-2.616
0.992
-0.288
-4.56
-0.192
-2.856
1.808
-1.096
-4
1.664
-0.808
-4.144
-1
-3.28
0.848
-0.336
-3.616
-1.16
-0.12
-2.056
-0.424
-3.376
-1.328
-2
-5.536
-0.816
-0.544
-1.088
2.8
-3.96
-2
-1
-4.544
-1.4
-1.256
-0.296
-1.032
-1.824
-1
-0.024
-3.928
1
-2.104
-0.72
-1
-4.224
-2.824
-1.384
-2.68
-1.032
-1.968
-1.192
-0.112
-2.52
1.168
-1
-3
0.648
-0.2
-2.896
-1.512
-1.456
-2.96
-1.72
-2.376
-1
-1.432
-3.496
0.4
-3.784
-3.928
-0.952
-3.784
-0.48
-2.664
-2.568
1.68
-3.752
-1.72
-3.144
-1.912
-0.024
-0.896
-1.2
-2.296
-1.608
-2.488
0.584
-6.04
1.664
-0.128
-2.968
-1.032
-1.76
-1.384
-0.176
-5.104
0.184
-1.72
-4.368
-0.168
-1.536
-3.048
-0.88
-1.392
0.032
-0.776
-3.008
-1
-2
-2.896
0.72
-3.976
-3.04
-0.912
-4
-1.552
-2.536
-0.56
-2.672
-2.248
-0.424
-3.584
-1
-1.568
-1.536
-1.656
-0.576
-1.24
-0.616
-1.432
-4.424
-1.096
-6
-1.144
-1.096
-4.424
-0.768
-2.04
-3.136
-1
-1.616
-1.728
0.48
-1.472
0.12
-0.256
-3.016
-1.28
-2.304
-1.816
0.592
-3.824
-1
-1.96
-2.888
-2
-2.696
-1
-0.752
-3.408
-1.032
-1.864
-3.24
0.536
-1.248
0.08
-0.368
-3.36
-0.728
-1.224
-3.296
-1.128
-3.08
-3.872
-0.984
-1
-0.336
-1.84
-1
-1.768
-0.48
-1.76
-1
-2
0.504
-0.824
-2.96
-0.36
-2
-0.528
-1.864
-3
-1
0.712
-3.832
-0.048
-4.712
-1.88
2.496
-1.784
-1.056
-1.064
-3.56
-1.816
-3.632
-3.024
-0.344
-4.2
0.056
-0.216
-2.72
1.208
-1.32
-3.216
-1.064
-3.984
0.968
-0.92
-2
0.472
-1.656
-1.728
0
-4.264
-2.832
-0.144
-0.488
1.44
-2.176
-2.624
-0.592
-1.752
-2
-2.456
-3.584
0.832
-2.008
-1
0.088
-2.456
-1.368
-1.84
-1.56
0.016
-0.872
-1.696
0.416
-2.48
-0.272
-1
-1.656
-1
-1
-0.424
-0.712
-1.096
1.76
-2
-2
-0.192
-2.424
-1.576
-1
-2.424
-0.008
-1
-1.432
-0.52
-2.056
-2.576
-0.128
-2
-1
-1.928
-2.448
0.136
-1.352
-0.96
1.984
-2.832
-0.52
-1.544
-1
-2
-0.704
0.624
-0.392
-3
-0.464
0.144
-2.336
-0.632
-2.32
-2.456
2.208
-2.176
-1
1.44
-2.84
-1
-3.744
-2.224
-1
-3.584
-1.024
-1.784
-3.648
-0.6
-2.104
-1.496
-1.824
-1
-0.28
-1.312
-0.208
-0.864
-1.168
-0.88
-3.144
-3.928
-0.048
-1.856
0.12
-1
-2.136
-2.792
0
-2.28
0.96
0.456
-3
1.448
-0.4
-2.24
-1
-1.744
-1.96
-1.32
-3.664
-1.936
-2.048
-3
-1.08
-3.104
0.296
-1.104
-2.272
0.04
-0.896
-1.832
-1.536
-1.976
-0.8
-1
-1.968
1
-1.496
-0.4
0.696
-2
-0.888
-1.008
-3
0.736
-2.592
-2.736
-2
-3.88
-0.968
-2.376
-4.424
-1.056
-1
-2.84
-0.384
-3.328
-0.136
-0.2
-2.616
-1
-2.904
-4.712
1
-2.904
-0.288
-1.856
-2.808
1.56
-2.136
-0.672
-1.384
-4.136
0.52
-1.888
-3
-1
-1.656
-4.88
-0.16
-2
-1.864
-2.912
-1.96
-0.032
-3.888
-1.104
1.392
-2.8
-0.992
-1.408
-2
0.824
-4.56
-1.488
-1.536
-1.832
0
-1
-2.184
-1.224
-2.352
-2.744
-1
-4.872
2.872
-2.872
-1.112
-1
-1.96
-1.512
-0.392
-1.704
-1.4
-0.208
-1.496
-1
-1.408
-4
-1.624
-2.736
-1.136
-1.336
-1.76
1.784
-1.048
-2.976
-0.144
-2.52
-0.672
-1.136
-3
-1.312
-1.64
-1.224
0.368
-6.008
-1
-0.4
-1.944
1
-1.768
-2.96
1.2
-2.776
-1.128
-1.032
-2.936
0.6
-1.488
-1.352
-0.776
-3.184
-1.92
-1.528
-2
-1.928
-1
-1.24
-2.608
-1.688
-1.408
-1.744
-2.6
-1.848
-2.104
-1.944
-1
-0.88
1.56
-1
-2
-0.768
-1.72
-1.656
0.248
-3
-0.416
-2.44
-0.704
-0.768
-0.016
-4.848
-1.48
-3.424
1.144
-2.096
-3.808
1
-1.856
-1.288
1
-2.616
0.28
-1.136
-2.328
-1
-2.136
-1.44
0.056
-1.424
-1
-3
-3.88
-1.696
-3.632
-1.864
-2
-1.04
-1.016
-0.944
-3
1.392
-1.8
-3.744
-0.704
-1
-0.568
-1.68
-2.512
-1
-1.584
-2.528
-1
-3
-1.776
-1.352
-3.616
0.84
-2.032
-3.016
-0.128
-1.888
-0.64
-0.792
-4.488
1.392
-0.944
-1
0.792
-2
-0.632
-1.224
-2.2
-2.688
-1.528
-2.704
0.664
-1.88
-0.928
-1.048
-2.976
-0.072
-2.76
-1.168
-0.784
-1.736
-2.312
-1.64
-1.408
-0.456
-1.992
-0.208
0.4
-2.296
-2.392
-0.744
-2.376
0.52
-1.224
-1
2.92
-1.968
-1.32
-1.488
-2.648
0.552
-2.184
-2.32
-1.368
-3.168
-2.928
-0.464
-0.88
-1.608
-2.032
-3.52
-0.496
-3.2
-2.696
0.48
-2.832
-0.04
-1.92
-2.176
0.592
-2.816
-2.232
-0.72
-3.672
0.248
-1.304
-2.416
0.08
-1.568
-1.232
-0.008
-1.712
-1
-1.384
-2.424
1.616
-2.952
0
-1
-3.808
0.568
-0.232
-2.76
-0.136
-3.656
-0.152
-0.136
-1.48
0.056
-1.848
-2.248
-0.328
-2
-0.536
1.528
-1.592
-1.912
-1.12
-1.016
-1.944
-4.792
-0.304
-1
-3
1.112
-0.656
-2.176
-2
-2.536
-1.68
-1.832
-0.264
-3.04
-1.816
-3
-0.528
-3.872
0.84
-1.032
-2.968
0.808
-2.664
-2.32
1.584
-4.232
-0.608
-0.648
-1.4
1
-2.008
0.368
1.184
-2.64
-1
-1.792
-2.352
2.664
-2.12
-1
1.928
-1
-2.072
-0.4
-0.672
1.92
-1.472
-2.624
-2
-2.776
-1.912
-1.992
-3.104
-1.4
-2.408
-2.696
-1
-2
-1.2
-0.224
-3.68
0.968
-2.872
-1.92
-1.128
-2.472
-1
-0.456
-3.32
0.528
-0.752
-3
-0.976
-1.44
-0.04
-1.688
-3.224
-0.496
-1.4
-1.544
-0.312
-1
-0.984
-0.96
-4.648
-1.272
-3.448
-1.232
-1.28
-4.344
-0.632
-2.88
-2.944
-0.6
-2.296
-0.616
4.328
-1.288
0.24
-1.768
-0.856
-1
-2.048
-2
-0.144
-4.424
1.28
1
-2.76
1.136
-1.992
-1.384
0
-2.52
-1.64
-0.848
-3.752
-0.672
-3.44
-3.072
1.448
-3.728
-2.736
-1.08
-2.984
-0.168
-2.792
-2.848
-1
-3.008
0.408
-1.936
-1
-1.44
-3.048
-0.216
1.168
-1
-0.72
-0.088
-2
-0.176
-3.256
-0.84
-1.032
-0.952
-1.192
-1.776
-3
0.168
-0.976
-0.52
-1
-2.8
-3.344
-1.008
-1.632
0.04
-1.8
-2.376
-0.264
-2.216
-2.664
0.52
-3.568
-0.976
-2.904
-1
0.16
-2.328
0.92
0
-3.064
0.2
-0.184
-1
1.512
-0.896
-1.09E-11
0.296
-1
2.024
-0.208
-2.36
-1.112
-3.064
0
0.936
-3.76
0.616
-2.296
-1.448
0.456
-4.4
-0.84
-0.336
-4.464
-1.56
-2.32
-3.432
0
-1.592
-1
1.4
-3.544
-0.208
-2.168
-1.984
0.92
-1.824
0.592
-1.816
-2.072
-0.56
-3.016
-1.752
-0.576
-2.472
-0.56
-1.296
0.08
-1
-0.152
-4.28
-0.384
-3.288
-0.808
-1.048
-1
-0.048
0
0
-0.576
-1.28
-1.152
0.008
-2.384
-1.864
-1.52
-0.528
0.576
-1.128
-3.688
-0.56
-2.768
-0.448
0.456
-7.208
-2.96
-2.984
-1.056
-0.792
-2.848
-0.4
-0.504
-3
0
-1.608
-1.32
0
-3
-2.168
-1.736
-3.72
-0.728
-2.224
-4.592
1.104
-3.76
1
-0.984
-3.936
-1.224
-2.68
-2.832
0.488
-3
-2.112
-1
-1.896
0.504
-3.912
-1.184
0.28
-2.936
-0.264
-1.432
-3.664
2.4
-0.072
-1.976
-0.976
-2
0.64
-3.16
-1.648
0.472
-3.752
-2.08
-0.184
-2
-2.016
0.312
-2.8
-0.648
-2.696
-3.232
-0.624
-5.2
-2
-1.064
-2.968
0.936
-0.84
-2.128
-0.472
-3.552
-2
-0.36
-3.368
0.752
-1.144
-0.512
0.12
-2.176
-0.312
1.52
0.248
-0.2
-0.304
-0.688
-1.056
-1.984
-2.12
-1.088
-3.728
0.632
-3.304
-1.12
-0.016
-3
0.152
-1.056
-2.08
0.864
0.232
-1.664
-0.136
-2.76
-1
-1.144
-3.712
-0.144
-2
0.904
-0.192
-2.144
-2.192
-1
-1.576
0.328
-0.848
-1.864
0.52
-2.944
-0.576
-1.504
-2
-1
-2.232
-2.896
2.32
-1
0.92
2.968
-3.832
-1.208
-1.848
-2.4
-0.504
-0.704
-1.688
0.176
-2.88
-0.512
0.072
-2.168
0.896
-2.32
-3.912
-0.12
-2.472
0
-1.08
-1.968
-0.016
-2.872
1.328
-0.52
-1
0.976
-1.784
-0.352
-1
-2.552
-1.984
-1
-1.368
-0.28
-0.56
-0.208
2.136
-3
-1.76
-1.072
-1.976
-2
-3.712
-2
-0.832
-3.352
1.208
-1.376
-3.92
0.184
-0.72
-1.496
0.552
-2.2
-1.648
1.48
-1.744
-2
-1.16
-0.664
-0.192
-2.016
-0.032
0.92
-3.616
0.648
-0.104
-2.272
-1
-1.632
-2.248
-1.072
-1.56
-3
-1.176
-2.624
-1
-1.752
-1
-1
-0.792
1
-1.024
-1
1.648
-0.728
-1.736
-1.768
-2
-1.328
-1.248
-3.424
-1
-2.92
-2.976
-1
-2.328
-1
-1.72
-1.808
2
-3.808
-0.952
-1
-3.856
-1
-0.712
-4.424
1.28
-3.848
0.656
-0.696
-1
1.08
0.056
-3.152
-0.496
-1.984
-0.16
-1
-1.184
-1.864
1.384
-0.96
2.984
-1
-1
-1
-3
-1.496
-1.52
-3.344
1.216
-1.56
-0.976
0.072
-2
-0.632
-1.96
-1.64
-0.224
-2.352
-1.488
1.76
-0.968
0.936
-2
-3.776
0.52
0.04
-2.024
-1
-1
0.4
-1.104
-0.992
-0.456
-1.816
-0.56
0.376
-4
-3.488
0.496
-2
0.072
-1.976
-2
0.856
-2.76
0.992
-0.568
-1
1.064
-2.28
-1.816
1.544
-3.488
-3.208
-0.2
-2
-0.392
-1.768
-2.376
-0.32
-3
-0.064
0.936
-4.904
-1.08
-0.872
-2.352
-1
-1.456
-1.64
-0.264
-3.416
-0.536
-1.44
-0.12
-2
-2.032
-1.816
-1.496
-4.2
-1.848
-0.208
-2
2.976
-6.8
-2.352
-3.456
-2.184
1.072
-1.72
-2.672
-2.872
-2.728
-2.416
-0.48
-4.568
-1
-2.344
-2.136
0.04
-2.808
-1
-1.192
-2.952
0
-0.952
-1.192
-1.288
-3.424
-1.24
-1.136
-3.656
-0.304
-1.84
-1.96
-0.472
-3.272
-0.872
0.344
-1.72
1.304
-0.552
-1.864
1
-2
-1.016
-1
-2.584
-0.608
-3.2
-2.248
-0.888
-3.624
-0.568
-2.12
-1.488
-1
-1.416
-3.632
-0.32
-1.816
0.552
-3
-3
-0.08
-1.968
-3
1.808
-0.776
-1.16
-0.792
-1
-1.912
-2.296
-3.2
1.104
-1.504
-2
-0.224
-1
-1.688
-3
-1.352
-2
-2.24
-2.784
-0.072
-1
-1.216
-2.88
-2
0.92
-2.472
-0.936
0.92
-3.368
-1.824
-1.992
-2.656
-0.6
-0.352
-2.48
-0.768
-3.376
-1.84
1.552
-0.872
0.936
-1
-2.92
-0.384
-5.12
-0.12
-1
-2.36
-1
-3.168
1.072
-2.976
-2.76
-1
-1.032
-1.408
-1
-1
-0.848
-1
-4.888
-1
-0.88
-3.912
-2.136
-0.816
-2.232
-0.72
-4.344
-0.752
-0.152
-2.472
0.44
-0.728
-2.616
-1
-1.424
-1.04
-1
-5.28
-0.096
-0.096
-4
-1
-4.808
-0.576
0.616
-3.52
-1.576
-0.992
-4.768
-0.704
-1.48
-0.528
0.456
-2.624
-0.344
-1
-3.84
-0.552
-3
-0.736
-1.04
-4.976
-0.056
-2.48
0.24
-1
-3.504
-0.888
0.032
-3.432
-0.08
-2.536
-1.288
0.248
-3.264
-1.04
0.368
-4.656
0
-2.384
-1
0
-5.936
-1.936
-1
-2
0.584
-2.488
-2.912
-1
-2.2
-2.24
-0.008
-1.456
0.632
-2.44
-0.376
-0.264
-2.216
-0.664
-0.12
-3.928
1.976
-1
-2.856
0.4
-0.664
-0.648
-1.264
-3.312
-1.08
-1.592
-1.912
-1.016
-1.896
-3
-1.112
-1.696
-1.976
-0.208
-2
0.776
-0.936
-1.904
-0.936
-1.68
-1.512
-1.824
-1
-0.728
-0.04
-1.208
-3.336
-2.536
-1.512
-1.44
-2.216
-1.376
-2.888
-2.76
-1
-3.304
-0.104
-1.056
-2.96
1.72
-2.648
-1.68
-0.368
-3.304
-1.4
-1.672
-0.504
1
-1.472
-2.12
-0.432
-2.384
-2.656
-1.576
-2.24
1.424
-1.144
-2.808
-1.096
-8
0.856
-1
-2.144
-0.576
-1.04
-0.576
-0.664
-3.848
-1.432
-1.56
-2
-1
-2.752
-1.688
-1
-3.768
0.632
0.592
-1.912
-1
-3.952
-2.056
-2.208
-2.544
1.8
-0.504
-1.592
0.032
-1.608
-1.88
0.512
-2.464
-1.168
0.16
-2.68
-1
-1.224
-2.648
-1.256
-4.08
1.032
-3.952
-3.808
-1.224
-1
-2.208
0.488
-2.392
-0.408
-0.2
-3
-0.488
-0.368
-1.184
-1.36
-3
-0.208
1.568
-2.832
-1.76
-1.216
-2.928
0.928
-2.856
-2.24
1
-3.352
2.152
-0.064
-3
-0.408
-2.544
-1.496
0.448
-0.8
-1.648
-1.608
-1.488
-0.792
-3.16
-1.888
-1.192
-2.968
0.808
-1.68
-1
1
-1.328
-0.632
-0.36
-2.632
-2.08
-1.536
-2.024
-1.44
-4.176
-2.312
0.408
-4
-1
0.544
-2.688
-0.056
-2.984
-1
-1.264
-4.456
-2.184
-1.84
-3.16
0.672
-1.496
-1
-0.584
-3.48
-1.272
-0.304
-3.992
-1
-2.96
-2.232
-1
-2
1.952
-1
-1.952
1.616
-1
-3
-1.48
-4.56
0.328
-0.232
-3.864
0.08
-0.472
-3.304
-0.376
-1.656
-1
-1
-4.264
-1.864
-1.352
-1.84
-0.016
-3.832
-1.208
2.392
-2.6
-0.752
-0.52
-2.376
-1.608
-2.12
0.024
-1.392
-4.416
-1.632
-1.96
-2.368
1.88
-1.824
-2.488
0.52
-3.904
-1.064
-1
-2.224
-0.32
-1.168
-0.768
-1
-4.296
-1
-0.76
-1.992
0.088
-2.592
-2.2
-1.936
-3.528
-0.216
-0.504
-3.52
-1.072
-2
0.024
1.712
-3.52
0.328
-1.136
-2.264
-0.248
-1.64
-2.224
-1.912
-2.504
-1.104
1.09E-11
-1.352
-1
-2.768
-1.584
0.68
-1.776
-0.872
-1.08
-1
-0.24
-0.616
-4.176
0.776
-1
-1.64
-1.632
-2.584
-2.464
-2.464
-2
-0.608
-1.344
-1.816
-1.496
-2.6
-1.304
-0.208
-3.776
-1.008
-1
-1.352
-0.864
-5.448
-1.696
-4.88
-1.984
-1.248
-1.576
-1
-0.92
-1.704
-1
-2.336
-3.136
-0.76
-2.616
-2
-1.192
-2.856
0
-0.952
-2.904
0.712
-2.616
-2.24
-1.288
-3.664
-1.768
-2.136
-2.56
0.416
-2.272
-0.496
-1
-1.72
-0.536
-1.368
-5.456
-1
-1.08
-3.016
-1
-3.376
0.696
-1.6
-2.008
-1
-2.312
-2.568
1.12
-2.024
-3.464
-0.08
-3.264
-0.36
-1.544
-2.88
1.296
-1.256
-1
-1.096
-4.936
-1.256
-3.552
-3
-0.416
-2.72
-1.608
-2.944
-3.4
0.104
-0.512
-3.632
0.184
-2
-2.064
-0.528
-2
-2.496
-1.24
-0.928
0.952
-2.952
-1.432
-1.12
-4.832
-1.216
-2.208
-2.936
-1.72
-3.368
-2.192
-1.992
-2.448
-2.2
0.24
-2.48
-0.256
-2.376
-1.68
-1.336
-2.872
-1
-3.904
-3.84
-1
-3.472
-1.896
-3
-4.04
-1.104
-1.168
-3.392
-2.024
-2.32
-1.824
1.28
-3.112
-2.256
2
-6.088
-1
-2.056
-2.968
0.92
-3.736
-1.68
-4.264
-2.464
-1.56
-5.704
-2.752
-0.576
-2.056
-2.56
0.84
-2.768
-1.664
-2.576
-1.52
-0.576
-4.712
-0.808
-1.144
-3
-2.096
-2.808
-1.856
-2.576
-2.24
-3.288
-1.336
-2.616
0
-1.52
-1
-2.152
-2.128
-1.344
0.32
-2.768
-1.632
-2.544
-2.736
-1.04
-1.992
-1.056
0.896
-1
1.2
-1.008
-3.296
-1
-1.608
-1.76
-1.024
-3.32
-0.168
-1
-1.96
-0.272
-1.224
-3.296
-1.128
-1.92
-1.904
0.968
-4.808
0.44
-3.68
-2.416
-1.256
-1.088
-1.352
-1.8
-3.448
-0.488
-3.912
-3.592
-0.36
-3
-1
-2.216
-3.832
-0.88
-1.216
-0.976
1.952
-2
-3.24
-1
-1.784
-0.056
-1.752
-0.44
-0.184
-3.632
-1.504
-1.448
-1.4
-0.944
-0.52
-2.488
0.584
-2
-3.664
-2.128
-2.984
0.872
-0.92
-3
-1.352
-3.104
-2.272
-1.36
-4
-1.416
-2.216
-2.56
0
-1.568
-2.936
-2.296
-2
-0.6
0.392
-2.688
-0.224
-3
-2.96
1.736
-2.136
-1.368
-2.536
-2.56
-0.312
-3.496
-1.424
-0.528
-1.96
-0.704
-2.152
-2.992
-2.136
-2.24
-0.192
-2.288
-1.096
-0.048
1
-4.856
-1.288
-1.856
-1.192
-1
-2.136
0.992
-2.848
-1.432
0.56
0.112
-3.304
-0.752
-4.016
-4.04
-2.16
-3.448
-1
0.648
-2.92
-1.008
-2.888
-3.208
-1
-3.6
-2.496
-0.112
-2.344
-2.392
-2.68
-2.488
-0.32
-3.336
-1.736
-2.96
-1.544
1
-4.352
-1.744
-1.08
-3.968
-1.016
-1.872
-5.552
0.68
-3.376
-2
-1.304
-2.648
-1.6
-1.656
-2.48
-1
-3.224
-3.56
-1.936
-1.264
2
-3.168
-2.76
0.856
-4.976
-0.072
-2
-1.6
1.824
-0.352
-3.528
0.376
-2
-0.632
1
-1.48
-2.864
-1
-0.944
-0.088
-2.744
-2.792
-1.32
-2.888
-1.872
0.952
-3
-1
-0.616
-1.352
2.104
-3
-0.6
-2.264
-2.664
2.464
-1.976
-1.56
-2
-3.344
-1.816
-1.992
-4.4
-0.152
-1.104
-0.944
-0.008
-2.8
-0.176
-0.864
-2
0.536
-3.16
-2.984
-0.128
-2.728
-0.416
-1.96
-2.864
0.384
-1.672
-3
-0.48
-2.576
-1.712
0.616
-4.76
0
-0.808
-3.712
-0.856
-2.232
-1.72
-0.288
-3.672
-1.304
-0.272
-3
-1
-2.576
-2.496
0.688
-2
-0.304
-0.552
-1.592
1.648
-3.88
-1
-0.944
-4.584
1.392
0.2
-4.248
-0.592
-0.968
-2.176
-1.56
-2.488
-0.536
0.752
-1
-0.32
-1.272
-3.552
-0.176
-3.616
-0.84
-3.032
-2.016
-0.256
-0.776
-1.48
-0.584
-3.232
0.088
-1.944
-2.2
-1.448
-1.504
-1.544
-1
-2
-2.376
0.208
-3.704
-1
-1.12
-2.784
-1
-1
-2.072
-1.24
-1.832
2.136
-1.944
-0.688
0.64
-1.592
0.72
-2.008
-3.448
-2.2
0.296
-0.872
0
-3
-2.68
-1.336
-5.808
-2
-0.936
-1.32
-2.872
-2.296
-1.224
-1.456
-3
-1
-1.504
-3.32
-1
-1.76
-3.04
-0.344
-2
-1.248
-1.8
-2.696
0.792
-2.112
-1.968
0
-1.736
-1.136
-1
-3
-0.28
-3.016
-2.752
-1.424
-6.472
-1.52
-2
-3.464
-1
-1.712
-1.52
1.04
-1.856
-1
-1.096
-4
-1.096
-1.904
-4.856
-2.192
-4.52
-1.864
-1
-0.152
1
-0.56
-3
-0.424
-2.504
-1.672
0.6
-0.768
-0.184
-2
0.088
-1.08
-1
-1.224
-1.688
-1.152
-0.4
-2.008
-1.592
1
-0.824
-1.88
-2.512
-1.536
0.168
0.792
-3.04
-1.272
-1.672
0.472
0.232
-6.6
-0.096
-0.968
-3
-0.112
-1.84
0.168
-3
-3.696
0.296
-1.4
-2.448
-1.496
-1.912
-2.368
-0.08
-3.376
-1.736
-1.432
-2
-2
-1
0.048
0
-3
-0.24
-2.16
-1.864
-1.264
-1
-3.08
-2.184
-1.456
-0.008
-1.448
-2
-1
-3.088
-0.488
0.96
-1.84
-1.664
-1.32
-5.92
1.904
-4.52
-1.256
-3.176
-2
0.728
-2.36
-2.632
-0.248
-4.072
-2.584
0.44
-3.608
0.688
0.408
-2.504
-1
-1.848
-0.688
1.72
-4.968
-1.16
-3.472
-3.864
-0.368
-4
-1.4
-1.328
-4.12
-1.848
-0.64
-3
-2.136
-1.304
-0.328
-1.864
-3.76
-0.192
-2.144
-1.096
0.856
-3
-0.048
0.808
-1.856
-1
-0.04
-3.424
0.648
-1.616
-1
-2
-1.944
-0.728
-1.008
-3.36
-1
-2.464
-4.448
-1.136
-3.912
-1.96
-1.992
-2.056
-0.208
-3.544
-2.8
0
-2.704
-3.688
-2.824
-2
0
-1.928
-2.168
-0.736
-1.68
-2.728
-2.776
-3.472
-0.256
-2.16
1.032
-0.984
-3.744
0.776
-0.68
-1.416
-0.256
-3.088
-2.464
-2.8
-2
0.016
-0.456
-2.776
-2.64
-1.312
-2
-0.216
-3.496
-1.12
-1.144
-2.952
-1.048
-2.928
-2.12
-1.168
-1
-1.264
-1
-2.64
0.368
-1.544
0.992
-0.448
-1.6
-1
-2.304
-0.744
-0.792
-3.32
-2.44
0.808
-5.968
-1.128
-1.16
-3
-1
-1
-1.544
-0.36
-1
-1.248
-1.536
-3.024
-0.56
-0.392
-2.968
-1.296
-2.752
-0.2
-1
-2
1.056
-1.016
-3.04
-1.088
-3.592
-1.184
-1
-4.16
-2.328
-2.248
-4
-1.528
-2.96
-0.136
-0.536
-2.664
-0.288
-1.72
-2.424
1.568
-1.096
0.952
1
-4.856
-1.288
-1.568
-2.192
-1.72
-3.136
-1.344
-1.848
-3.864
-0.48
-0.416
-2.728
-1.624
-3.656
-2.44
-0.464
-3.264
-2
-2.088
-0.96
1.96
-1.832
-2.312
-1.152
-3
0.76
-4.928
-2.688
-1.608
-2.36
-1.464
-0.856
-0.168
-1
-1.64
-2.912
1.776
-2.648
-0.744
-1.4
-3.904
-1.032
-1
-3.776
-0.68
-2.792
-2.768
-1
-2.704
0.6
-2.104
-1.984
-2.088
-1.816
-0.36
-1.624
-3
-1.216
-1.336
-2.76
-1.216
-4.976
-4.952
-1
-3.76
0.496
-1
-2.32
-0.688
-2.64
-1.816
-1
-4.992
-1.312
-2.4
-4.24
-1
-1.256
-3.168
0.2
-2.224
0.872
-2.016
-2.936
-0.16
-5.104
-1.352
-0.552
-1
-1.64
-3.528
-2.664
-1.536
-1.488
-3.8
-0.392
-0.688
0
-0.992
-2.4
-1
-2.104
-0.72
-1.04
-3.88
0.736
-1.728
-2.184
0.536
-0.44
-1.656
-0.624
-2.152
-0.36
-2.92
-3.84
-1
-1.672
-2.424
-1
-1
-1
0.616
-4.808
-1
-0.952
-1.48
-1.144
-3.424
-1.48
-1
-2
-2.384
-1.568
-1.96
-2
-2.848
-1.496
-1.312
-3.56
-0.768
-0.104
-1.32
-1.176
-1.08
0.976
-1
-3
-0.456
-1.4
-1.744
-1.408
-2.656
-2.392
-0.12
-3.512
1
-3.248
-3.528
-1.32
-2.184
-1.328
-1.528
-3.616
-0.08
-2.032
-3.968
-2.128
-5.44
-0.48
-1
-3.744
0.088
-3.296
-2.4
-1
-5.016
-0.72
-0.632
-2.64
-1.688
-1.528
0.432
2.16
-2.64
-0.928
-4
-2.952
-1.072
-2.76
-3.336
-0.432
-2.944
-2.56
-1
-4.184
-1.456
-2.488
-0.656
-0.8
-2.056
-0.088
-1.512
-2
-1.84
-1.224
-2.808
-0.984
-1
-2.32
-0.744
-1.824
-0.12
-1.456
-1.32
-0.736
-1.336
1.072
-0.976
-1
-0.216
-0.376
-1.704
-1
-1.8
-0.696
0.584
-1.832
0.984
1
-1.912
0.32
-1.448
-2.16
-0.44
-1.672
-1.376
-1.88
0.112
-0.52
-2.728
-1.616
-0.344
-2.712
-1.48
0.232
-2.568
-1.192
-1
0
-0.048
-4.616
-1.72
-1.808
-2.48
-1.288
-1.328
-1.768
0.296
-1.52
-0.472
-1
-5.496
-0.344
-1.84
-0.84
-1.368
-3.136
-0.736
-1
-3.984
-1.112
-2.584
-1.456
-2
-1.504
-1
-1.312
-0.608
-0.44
-2.536
-0.68
0.584
-1.632
-3.04
-0.544
-1.552
-2.824
-1.256
-3.52
-1.128
-2.904
1.808
-0.112
-2.68
-1.416
-1.488
-3
0
-2.8
0.208
-0.016
-3.456
-0.776
-1.08
-3.064
-2
-0.648
-0.664
0.52
-3.856
2
1
-3.784
-0.24
-3.496
-1.216
-1
-1.688
-0.36
-1.96
-1.912
0.016
-2
-0.2
1.24
-1.304
-0.256
-1.208
-1.84
-1
-1.192
-0.984
0.968
-4.68
-1.512
-1.648
-2.104
1.456
-3.72
-0.472
1
-2.536
0.464
1.56
-1.608
-1
-0.184
-0.256
0.8
-0.848
-1.688
-1.112
-2.96
-0.12
-1.736
-3.864
-1
-4.84
0.88
-1
-1
2.152
-1
-2.04
-1.432
-2
-1.328
-0.152
-2.52
-1.192
-1.432
-2.328
-1.096
-2
-1
-2.616
-1
1.232
-2.04
-1.576
0
-0.848
-2.728
-0.52
-1.416
-0.304
-1.376
-3.016
-0.56
-2.232
-2.264
0.456
-1.824
-1.84
-2.968
-4.056
1.48
-2.696
-0.6
-1.248
-5.224
-0.688
0.176
-1
-1
-1
0.08
0.264
-2.32
-0.728
1.328
-2.648
2.488
-1.24
-0.936
-1.016
-1.936
-1
-0.16
-2.792
-0.512
-1.696
0.592
-0.6
-2.104
-1.984
-1
-2.408
1.64
1.376
-0.68
0.352
-4.496
0
-0.144
-2.928
-0.024
-1
-0.24
0.664
-1.352
0.208
-1.064
-2
-1.408
-2.632
-2.512
-1.344
-1.8
0.352
0.088
-3.488
1.376
-1.16
-1.664
0.808
-2.936
1.84
-0.08
-2.128
-1.528
-0.552
-0.272
-1
-2.264
-0.416
-0.072
-1
-1
-1
-3.312
-1
-1
-2.6
-1.456
-3.896
-0.112
-1.008
-3
1.648
-3.184
-0.368
-2.768
-2.28
0.36
-2.248
-2
1.472
-3.48
-1.568
0.848
-2.664
-0.712
-1.48
-1.808
-2.144
-2.192
-1.048
-1
-1.952
-0.096
0.288
-2
-1.24
-2.424
-2.68
-1
-2.136
-1.96
0.056
-2.728
-1.624
-1.984
-1.88
0.072
-1
0.864
-2.088
-0.96
0.976
-0.832
-1.104
-0.696
-3.4
-1.248
-0.52
-4
-1.392
-2.68
-2.024
-1
-2.336
-0.632
-1
-2.456
-1.672
-1.824
0.872
-1
-2.936
-1.064
-0.872
-2.776
1.04
-2.752
-1.28
-1
-2.648
0.6
-1
-1.496
-1.544
-2.224
-0.56
1.752
-2.472
-0.352
-1.672
-2.4
-0.072
-2.976
0.928
0.072
-2.76
-0.84
-0.568
-2.264
-1
-2.28
-1
-0.544
-1.496
-1.656
-1.2
-1.648
0.392
-1.768
-1.376
0.52
-3.776
-1.872
0.92
-3.968
-1.08
-1.872
-3.176
-1.224
-2.456
-1.64
-1.896
-1.248
-0.536
0.096
-0.68
-0.392
-2.656
-1.704
-1.248
-2.6
-1.696
-2.896
-3.776
-1.04
-1
0.648
-0.728
-3
-2
-2.76
-1.984
-0.128
-2.152
-1
-1.44
-3.136
-0.384
-1.672
-1.424
-0.96
-0.616
-1.856
-1.192
-1.952
0
-2
-2
-1.856
-1.192
1.04
0.152
-1
0.848
-1.976
-2.44
1.528
-1.424
-0.624
0.344
-2
0.536
-3.184
-0.864
0.912
-2.04
0.952
-0.776
-1.688
-2.456
-2.2
-1.248
-0.296
-2.968
-1.784
-0.56
-2.488
-1
-0.664
-1.632
-0.68
-1.728
-1.552
0.768
-1.872
0.08
-0.224
-2
0.68
-3.664
-3.32
-0.376
-2.744
-1.608
-0.648
-4.2
0.656
-3.504
-1.088
-1
-2.28
0.624
-1.264
-4.568
1.664
-2.76
-0.928
0.904
-0.952
-1.216
-2.52
-1
-0.352
-5.152
-0.56
-0.64
-1.816
0.632
-2.488
-1.104
-1.8
-1.352
0
-1.256
-3.376
0.68
-1
-0.936
-1.048
-0.936
1.76
-0.128
-2.648
-1.448
-1.728
-1.32
-2.104
-3.168
0.144
-1.976
-2.44
-0.608
-0.032
-0.704
0.248
-3.8
1.544
0.376
-1.056
1.976
-0.92
-1.088
-1
-2.896
0.608
-1
-1.312
0.752
-1
-0.416
-1
-3.432
-0.312
1.656
-3.136
0.76
-1.192
-2.424
0.712
-2
0
-1
-4.52
0.568
-2.616
-2.24
2.424
-0.992
0.232
-2
-2.96
-1.528
-2.12
-1.368
-1.672
-1.84
-2.072
-0.552
-0.864
-1.912
-1.08
-1
-0.056
-1.896
-1.456
0.4
-2
-1
-1.968
-2.392
-0.56
-3.512
-2.536
0.752
-3.528
-1
-1.272
-0.224
2.296
-1.384
-1.76
0.904
-2.968
-4.808
-0.552
0.36
-1
-0.744
0.176
0.056
-3.4
-0.792
-1.52
-2
-1
-0.44
-0.064
-1.264
-2.784
2
-1.12
-2.856
3.88
-2.928
-1.072
0
-2.664
-1.648
0.056
-2
1.28
-3.368
-0.456
-1.992
-1.656
-1.6
-1.056
-3
-0.256
-1.208
-2.88
0.664
-2.872
1.952
-1
-2
-1.128
-3.296
-0.672
-1.184
-2.64
-1.368
-2.92
-2.928
0.976
-1.44
-3.432
-1
-2.408
-1.752
-2
-4.088
1.48
-2.056
-2.952
0
-2.912
1.456
0
-2.536
-1
-1.672
-2.128
0.272
-2
-0.56
-1.296
-3.696
-1
-0.152
-0.52
-1
-3.712
-3.808
-3
-1
0.856
-4.616
-1.432
-1.808
-2.76
-1.152
-0.328
-4.384
-0.864
-2.48
-1.056
-1
-1.624
-2.688
-1.56
-2.768
1.448
-2.592
-0.912
0.76
-3.968
1.832
0.896
-4.544
-1.2
-1.256
-1.888
-3
-2
-0.88
-1.512
-1.464
-2.168
-1.736
-1
1.912
-3.776
-1.824
-0.384
-1.76
0.904
0.032
0.128
-0.888
-2.68
-0.04
-2.208
-1.304
0.24
-3.2
-2.24
-0.008
-3.456
-0.592
-2.08
-3.376
0.472
-1
-1.664
-0.24
-2.072
0.024
1.024
-3.856
-1.24
-2.16
-1.784
0.264
-4.064
-1.44
0.592
-3
0
-1.448
-0.8
1.296
-2.304
-1.976
0.584
-3.52
-1.664
-2.192
-0.984
-1
-2.92
-2.128
0
-2
-0.816
0.28
-1.208
-1
-0.608
0.464
-1.56
-2.176
-0.656
-2.704
-1.752
-1
-3.152
-0.104
-0.056
-1.992
0.88
-1.736
-4.592
1.816
-1.768
-2.28
-1.672
-3.248
-0.272
-3.056
-1.6
-0.432
-2.536
-0.992
-0.712
-3.04
-0.192
-2
-3.616
-1
-4
0.856
-0.712
-3.712
0.616
-2.52
-3
0.664
-2.848
-0.456
-0.04
-4.056
-2.152
-0.376
-3
0.44
-1.928
-1.448
0.592
-3.088
-0.92
-1
-2
-1.208
-2.24
-1.4
-0.752
-1
-1.032
-1.432
-1.44
-0.512
-1.928
-0.168
0.528
-4.72
-1.456
-1.448
-1.472
-0.256
-1.4
0.936
1.952
-1.936
-1.112
-1.68
-1.832
-2.256
-2.48
-1.76
-0.2
-2.104
0.008
-1.912
-2.184
1.56
-1.624
-0.416
-0.216
-3.336
-0.64
-3.784
-2.952
-1.048
-2.856
0.28
1.664
-3
-1.056
-3.128
-2.44
-0.592
-1.544
-2.008
-1.448
-3.4
-1.296
-0.216
-2.976
0.96
-1.48
-1.664
1.744
-1.984
-2.032
-3.76
-3
-0.824
-4.88
-2.816
2
-2.896
-0.08
-1.752
-3.536
0.68
-1.784
-2.344
-2.296
-4.256
0.8
-3.304
-4.48
-1.112
-1.992
-2.92
-2
-3
-2.104
-1.768
-3.44
-0.656
-0.496
-3.272
-1
-5
-1.568
-0.304
-1.328
0.424
-3.48
-1.424
-2.288
-0.904
-1.096
0
-2.048
-1.48
-3.568
-1.192
-1
-2
-2.672
-1.08
-1.568
1.48
-1.416
-1.304
-1.752
-2.344
-1
-1.928
-3
-1
-2.912
-2.84
-1.008
-2.888
-0.208
-1.696
-3
-0.744
-1.704
-1.344
-1
-3
-0.952
0.68
-1
-1
-2.96
-3.456
0.776
-2
-1.744
-1.08
-3.032
0.92
-1.616
-3
0.52
-3.376
-1.512
-1.784
-1.352
0.8
-1.104
-1.504
-1.176
-1.816
-3.56
-0.624
-3.208
-0.216
0.16
-4.4
-0.072
-1
0.88
-1.216
-2.88
-4
-0.216
-2
-1
-2.64
-2.224
-0.088
-3.512
-1.552
-0.4
-0.296
-0.304
-2.024
-2.168
1.36
-2.776
-1
-2.032
-3
0.68
-4.36
-3.824
0
-3.184
0.36
-2.632
-2.832
0.072
-2
0.12
1.04
-3.312
-3.816
-1.744
-2
-0.152
-2.208
-1.944
-1.032
-3.88
-0.176
0.728
-4.368
-1
-1.72
-0.656
-2.496
-2.728
-1.36
0.04
-3.272
-0.616
-2
-3.136
0.8
-1.192
-2.568
-1.192
-3.76
1
-0.904
-0.288
0.712
-3.424
-1.48
-0.424
-2.992
0.848
-1
-2.92
1.528
-3
-1
-1
-3
-1.768
-1.368
-5.32
-0.352
-2.88
-2.024
-1.056
-2.584
-1.152
-2.8
-1.744
1.112
-1
-3.608
-1
-3
0.608
-1.416
-2.264
-0.32
-4
0
2.944
-1.872
-1.92
-1.096
-3.968
-0.064
-1
-2.16
-0.792
-3.232
0.784
-1.648
-2.8
0.448
-1.512
-3.176
-1.408
-3.56
-1
-1
-3
-1
-4
-1
1.904
-2.904
-1.288
-1
-1
0
-1.944
-1.56
-2.28
-2.184
-2.368
-2.992
-1.552
0
-2.056
-3.696
0.744
-2
-0.52
-1.336
-5.552
-0.016
-3.872
-3.08
1.616
-3.648
0.552
-0.456
-1.36
0
-2.752
-2.392
-0.488
-3.88
-1
-1
-3.704
0.256
-1.4
-1.544
-1
-3
-1.008
1.04
-4
1.184
-3.264
-1
0.44
-1.672
-1.88
-0.576
-3.416
-0.56
-0.728
-1.464
-0.336
-2.712
-0.8
-1.192
-2.712
3.52
-2.096
-1
-1
-0.808
-1.288
-1.192
-3.28
-1.576
-1
-3.384
0
-2.56
-0.584
-2.12
-3
-0.344
-1.56
-2.304
1.448
-0.864
-1.824
2.8
-3.984
-1.168
-1.896
-1.608
-0.4
-4.008
-3
-0.656
-3.176
-1.44
-0.072
-1.608
-0.752
-1.736
-2.4
-1.816
-3.328
-1
-1.512
-3.6
-0.064
-0.984
-3.936
-1.888
-4.68
-0.416
-2.488
-2
-0.056
-2
-1.552
0.984
-2.544
-2
-1.72
-2.752
-1
-1
-0.832
0.52
-3.928
-0.952
-0.976
-3.072
0.76
-1
-1.648
1
-1
-1.08
-1
-1.28
-0.008
-1.448
-1.4
-1
-2.696
-1.72
1.584
-3.2
-1.112
-2.064
-0.968
-0.968
-4.76
-1.256
-1.648
-2
0.64
-2.36
-4
0.416
-0.536
-1.512
-2
-4.608
-2.968
-1.888
-3.008
1
-1.848
-1.584
0.72
-0.992
-1.16
-0.736
-0.272
-1
0
-1.28
-2.344
-2.752
-1.424
-2.64
-2.08
0.136
-0.384
-1.984
2.272
-1.52
-3.424
-2.576
-2.904
-1.952
-2
-1.192
-0.712
-2.712
-0.384
-1
-0.288
-1
0.232
-1.864
-1.04
-3
-0.728
1.12
-1.656
0.28
-1.232
-1.08
1.728
-2.648
0.92
-0.992
-4.944
1.688
-5.392
-1.2
0.504
-3.408
0
-0.608
-0.88
0
-1.392
0.832
-0.472
-2.68
-1
-0.224
-2.648
0.744
-1
-1
0.968
-2.872
1.328
-1.68
-1.416
-0.512
-1.48
-1.352
-0.2
-2.104
-0.504
-0.912
-1
0.28
-1.624
-1.736
-0.648
-3.496
0.88
-1.928
-1.928
-0.024
-2.856
-3
-1
-1.784
-0.32
-1.44
-0.72
-0.408
-2.088
-0.504
-0.344
-2.2
-0.648
1.088
-3.696
0.792
-1.16
-1.112
-0.064
-3.92
-1
-0.84
-2.744
2.296
-0.552
0.64
-0.68
-1
0.168
-0.072
-3.048
0.56
-0.568
-1
-0.184
-2.752
0.2
-1.152
-1
-1.056
-0.992
-2
1.56
-1.592
0.264
-1.536
-4.88
-1.328
-1
-2.272
-1
-1
0.432
-0.072
-2.664
-0.288
-1.72
-3.424
-1.856
-3
-2
0
-2.904
-0.096
-1.856
-1.808
-1
-1
0.656
-0.616
-1.432
-0.48
-0.944
-1.728
0.248
-0.344
-1.28
1.072
-2.896
-1.864
2.384
-3.76
-1
-1
-1.52
-1.848
-1.2
-0.992
-1.816
-1.376
2.392
-2.12
-0.488
0.608
-3.832
1.368
-3.64
-4.184
-0.224
-3
1
0.76
-1.872
-1.016
-1.68
-4.664
-1
-1
-1.256
1.608
-2.352
1.2
-0.656
-1.992
-1.912
-1.816
-1
-3.624
-3.528
-1
-1.504
-1.64
-1
-2.048
-3.976
-0.144
-3.64
-1.672
-0.568
-2.056
-1
-1.56
-0.632
-2.632
-1.496
-0.656
-1.4
-2.296
-2.304
-0.512
-0.208
0.36
-2.888
0.872
-2.08
-4.968
2.52
-3.488
-1
-1.328
-2.456
-0.6
-1.368
-2.416
0.072
-3.44
-1.24
0.216
-3.344
-0.704
0.008
-2.6
0.696
-0.208
-1.944
-2
-1
-0.088
-0.728
-4.448
-0.464
-2.44
-1.656
-0.624
-3.152
-0.888
-0.96
-1.568
-1
-3.328
-1.136
0.28
-2.232
-2.568
-1.288
-2.856
3
-2.856
-0.096
-1
-1.808
0
-2.136
-2.344
-0.152
-1.84
-2.44
-0.472
-4.272
-1.624
-1.984
-3.88
-1
-3.368
-2.32
0.824
-2
-3
-0.832
-2
-1
-1.6
-2.752
1
-2.968
0.432
-1.12
-1.976
0
-2.664
-1.896
0.36
-2.272
-0.552
1.296
-2.744
-1.08
-3.096
-0.016
-0.936
-3.664
-0.48
-1.416
-3.232
0.088
-0.648
-1.2
-0.552
-2.008
0.824
0.184
-3.36
-0.688
-1.264
-4.136
-1.168
-1.88
-1.784
-1.048
-3.952
-1.216
-1
-1.504
-1.216
-1.68
-0.56
-1.92
-3
-1
-0.984
-2.208
0.6
-1
-2.784
-0.768
-3.376
-2.84
0.664
-1.936
-1.032
-1.872
0.84
-0.744
-2
-2.344
-1.456
-2.32
1.632
0
-0.856
0.536
-3.12
-0.04
-3.376
-3.112
-1.744
-2.6
-0.544
-0.104
-2.944
-0.016
-2.88
-1.176
0.728
-1.448
0.072
-1
-3.344
-0.504
-1.272
-1.472
-0.52
-4
-1.08
-1.664
-1.576
-2.52
-1.808
-0.856
-1
-2.048
-1
1.808
-3.712
-1.288
-2.616
-2.52
-1.576
-1.328
-1.536
-2.568
-4.6
-2.528
-0.272
-2.248
-1.672
-2.12
-0.536
-0.184
-1
-1.472
0.88
-5.968
-2.168
-3.48
-2.848
0.6
-2.008
0.112
-2.312
-2.392
-1.32
-1.512
-2.072
-0.584
-2.736
-0.68
-0.088
-2.552
-1.648
-1.256
-3.76
0.904
-0.936
-1
1
-3.36
-1.208
-0.488
-2.304
-0.352
-2.6
-0.792
1.008
-2.544
-1.592
-0.72
-3
1.208
-0.648
-2.992
0.64
-1
1.928
-1.976
-1.072
-0.12
-1.664
-2.864
-2.472
-2.376
-1.72
-1
-4
-1.008
-2.896
-1.6
0.056
-1.304
-3.232
-1.208
-1.16
0.776
-4
-1.936
1.904
-0.76
-1.128
-2
-2.552
-1
-1
-0.84
-1
-2.144
-1.536
-0.76
-4.392
0.688
-2.592
-2.504
-0.2
-1.152
-0.792
-1.168
-3.008
-2.04
-3.56
-4
-0.632
-2.84
-0.84
1.016
-2.624
-2.848
-1
-2.44
0.864
-1.768
-1.664
0.136
-1
-2.848
-4.856
-2.904
2.808
-2
-1
1.904
-6.136
-0.808
-1
-2
0.656
-2.232
-1.296
1.48
-4
-2.152
1.12
-3.688
1.72
-2.232
-0.896
1.456
-4.824
-0.12
1.976
-4.776
1.792
-3.24
-4.4
1
-2.408
-1.688
-1
-3.68
-1.488
0.072
-3.168
0.368
-3.28
-2.184
0.328
-3.12
-1.872
-2.08
-3.904
-0.032
-5.744
-2.336
-0.52
-4.792
-1.512
-3.784
-1.352
-1.2
-2.104
-2
-1
-3.592
-1.36
-1.248
-2
-1
-1
-2.76
-1.144
-3.928
-0.12
-0.928
-3
1.496
-0.568
-0.056
-1
-3.56
-1
-1.544
-2.504
-1.552
-3
-1.888
-1
-1.512
-0.168
0.52
-2.44
-1.872
-3
-1.064
-1
-3.616
0.944
-2.552
-3.912
0.36
-2.368
-1.416
0.464
-1.488
-1.24
-1.392
-1.344
-0.408
-1.24
-3.2
-0.304
-2
-3.72
-2.016
-4.84
0.648
-1.864
-2.552
0.536
-3.16
0.36
1.752
-0.728
-1.472
-0.48
-2.704
-0.232
-1.344
-1
-2.76
-1.192
1.568
-2.192
-1.952
-1
-2.76
0.424
0.712
-2.616
-1.48
-0.424
-2.336
-1.384
-1
-3.44
-1
-1.848
-2.376
-0.984
-2.44
-0.072
-1.736
-3.048
-0.176
-1.04
-1.024
-1
-3.688
1.392
-1
0.256
-1.296
-2.656
0.824
-0.88
-2.488
-0.68
-1
-2.896
0.32
-1.544
-1
-2.176
-1
-1.68
-1.032
-0.952
0.808
-5
-2
1
-3
-0.824
-2
-1.8
-0.104
-1.504
-0.632
-1.592
-3
0
-0.792
-2.784
-1.504
-2.36
-1.856
-1
-4.928
-1.072
-0.64
-2.664
-0.432
-1.736
-1.248
-0.28
-3.592
-0.912
0.016
-2.448
-1.6
-5.056
-2.304
-0.024
-2.208
-1.68
-1.336
-1.808
0.952
1.064
-1.16
1.872
-4.296
-0.896
-2.184
-2.36
-0.368
-0.752
-2.928
-1
-3.88
-2.216
1.624
-3.224
-1
-1.4
-2.696
0.104
-2.056
-2.952
-0.92
-3.736
-0.864
1.816
-1.232
0.32
-3.672
-1.376
0.272
-4.056
-1.52
-1.864
-2.616
-0.992
0.56
-0.52
0.424
-2
0.096
-2
-6
-0.048
-2.808
0.712
1.232
-2.76
-0.152
-0.664
-3
-0.432
-1
-1
-1
-1.376
-2.344
-0.12
-2.072
1
1.32
-1.824
-1.08
-3.968
-0.056
0.792
-3.24
-1.4
-1.504
-0.296
-1.656
-1.432
-0.44
0
-2.464
-1.584
-0.472
-1
0.184
-1.448
-1.824
0.488
-2.84
0.968
-0.968
-2
-1.888
-1.84
-0.416
1.256
-1.696
-1.056
-0.8
-0.448
-0.496
-0.824
-1.184
-1.36
-1.688
-2.264
-3.432
-0.496
0.76
-1.288
-2.952
1.928
-1.928
-0.48
-1.664
-1.784
1.208
-3.064
1.2
-0.184
-1.912
-1.008
-0.792
-1.6
-1.352
-1.216
-3.232
0.376
-2.32
-1.888
-1.192
-2.936
1.904
-1.92
-2.128
-1
-1.224
-1.816
-0.32
-1.632
-0.584
-0.608
-1.512
1.56
-3
-2.312
-1.704
-3.008
-0.8
0.24
-3.688
2.72
-1
-1.12
-0.912
-2.592
-1.368
-2.072
-4
-0.656
-0.624
-1.272
1
-2
0.728
-0.536
-3.656
0.272
-1.48
-3.04
0.992
-5.424
-4.76
-1
-1.952
0.712
-1.856
0.656
-1
-3.424
-1.336
0.152
-0.728
-0.96
-2.416
-1.304
-1.624
-0.656
-1.44
0.072
-3.448
1.136
-1.264
-2.88
1.976
0.056
0.688
2.152
-2
-0.744
-3.112
-1.376
-0.392
-1.68
-1.952
-2.856
-2.752
0.264
0.36
-2.272
-1.224
-2.352
-1.36
-1.92
-0.872
1.936
-1
-1.664
1
-4.376
-0.256
-0.696
-3.296
-1
-0.656
-2.488
-0.456
-3.816
-0.56
-2
-2.472
-0.352
-1.336
-0.52
-1.072
-2
-1.024
-1
-3
-1.832
-1.568
-1.736
0.376
-1.64
-2.592
-0.544
-2.984
-1.208
-1.2
-3.944
0.696
-1
-2.376
-1.16
-1.888
-2.744
-1.048
-1
0.68
-1.872
-0.704
-0.776
-3.184
-1.32
-1.264
-0.832
-0.536
-2.464
-2.56
0.216
-1.688
-2.408
-0.248
-1.2
-1
-2.104
-2.776
0.968
-1.96
-1.176
-1
-1.816
-1.768
-1.72
-1.984
0
-1
0.64
-0.92
-1
-1.616
-1.008
-0.712
-0.48
-3
1
0.712
-1.856
-1
-2.856
-3.904
0.856
-2.808
-1.24
-0.712
-1
0.616
-1.568
-1.52
-1.944
-1.544
-1.248
-0.984
-1.28
0.232
-1.736
-2.592
1.648
-1.96
-1.008
-1
-3.688
-1.152
-0.2
-3
-1.296
-3.968
-0.568
2
-3.512
-0.68
-3.416
-1.632
-0.32
-1.816
-1
-0.528
-4.616
-0.08
-1.064
-1.984
-0.256
-0.664
-1.48
-1.584
-2.488
-0.608
0.056
-1.6
-0.448
-2.008
-2.088
-1.816
-1
-1.688
-0.056
-3.352
-0.168
-1.36
-0.784
1.88
-0.952
1.64
-2
-4.168
-0.08
-2.68
-1.312
0.28
-3.592
-0.824
-0.992
-4.208
-2
-1.704
-1.696
0.976
-1
-2.2
1.216
-3.68
-1.032
-0.936
-1.92
-1
-3.296
-0.896
-0.184
-3
-0.104
-1.832
-3.928
0
-2.56
0.96
-1.312
-2.48
-1.504
-1
-0.848
-0.208
-3.944
-0.992
-0.96
-1
0.728
-1.448
-0.696
-1.72
-1.016
0.248
-1.848
-3.944
-1.52
-1.296
-2.08
-1
-1
-1
-0.384
-4.28
-0.096
-2.096
-4
2.856
-3.52
-2.288
-2
-3.52
-0.44
-1.992
-1.152
2
-2.56
-0.584
-1.576
-2.376
-0.672
-2.4
-2.304
0.632
-1.408
0.088
-1.04
-2.992
-0.224
-2.792
-3
-1.4
-3.008
-1.184
1
-2.216
-1.88
-1
-2
-1.832
-2.104
-1.72
-1.272
-2.328
-0.176
-1.128
-1.84
-1.064
-1.952
-3
2.664
-1.16
-0.04
-1.232
-2
-1
-3
-0.344
0.488
-2
0.04
-0.72
-1.064
1.944
-3.568
-4.328
1.52
-2.856
0.024
-0.976
-2
1.64
-2.328
-1.432
-0.472
-3.376
-1.36
-2.184
-1.456
-1
-2.344
-3.8
-0.408
-1.608
-1.232
-0.832
-2
-0.112
-3
-1.984
0
-4.68
0.744
-0.648
-2.776
-0.728
-4.72
-0.84
1
-3
-0.536
0.68
-0.432
-0.656
-1.592
-2
0.4
-3.696
-0.792
-1.056
-1.008
1.8
-1.912
-2.136
-1
-2.536
-0.96
-1
-3.376
0.152
-1.64
-1.04
-1
-2
-1.328
0.848
-2.28
0.616
-1.432
-2.808
0.904
-5
-1.144
-0.808
-2.856
2.04
-2.52
-2.152
-0.992
-1
-1.728
-0.08
-0.112
-0.848
-1.632
-1.672
0.44
-4.072
-1
-1.136
-4.648
-0.04
-0.984
-0.112
1.688
-4.544
-1.6
-0.256
-1.592
0.968
-1.392
-2.2
0.952
-1.464
-3.168
-1
-3.68
-2
-3
-1.176
-1.256
-1.08
-1.032
1.016
-1.064
0.664
-3.04
-1
0.744
-1.696
1
-0.8
-2.448
-1.008
-2
-3.368
-1
-1
-0.736
-1.432
-1.496
-1.24
-1.216
-3.928
-0.952
-2.928
-2.12
0.832
-2.784
0.208
-1.688
-0.72
-1
-0.544
-2.52
-0.896
-0.8
-1.648
-0.216
-3.232
1.168
-4.84
1.888
-0.128
-1.936
-1.096
-1.76
-1.256
-3.472
-4.104
-1.36
-0.36
-3.736
0.584
-1.144
-1.536
0.24
-2.608
-1.592
-0.296
-1.248
0.4
-1.152
-1.792
0.832
-3.992
-1.04
2
-3.592
1.816
-0.84
-1.12
0.344
-1.248
-1.848
-0.112
-3.04
-0.568
-1.384
-3.664
-0.152
-4.52
-2.616
0.28
-0.904
1.712
0
-2.048
-1
-1.856
-2.384
-2.24
-2.424
-1.336
-3.464
-0.864
-2.48
-3.584
-3.304
-0.128
-1
-0.28
-0.16
-1.08
-0.544
-2.088
0
1.992
-2.944
-1.312
-3.696
-1.4
0.752
-2
-0.344
-2.608
-2
0.024
-1.856
-1
-1.736
-3.04
-1.912
-1.448
-1.296
1.616
-3.08
-2.936
0.952
-2.936
-1.448
-0.52
-2.584
-0.768
-3.088
-1.352
0
-1.552
-3.48
0.088
-2.184
-3.64
-1.688
-2.208
-1
-2.168
-3.64
-1.072
-3.952
-1.024
-3.784
-1.36
-0.336
-2.136
1.208
-1.376
-2.28
0.184
-0.632
-3.008
-0.448
-2.8
-2.296
-2.608
-3.488
-1
-2.84
-3.44
-1.128
-3
-2.032
-0.92
-3.616
1.12
-1.104
-0.632
-1.68
-1
-1
0.32
-2.512
-0.12
-2.568
-1
1.704
-4.248
-2.6
-0.456
-3.792
0.888
-1.992
-0.12
1.176
-3.592
0.264
-2.536
-2.72
1.016
-2.872
-3.272
-0.472
-1
-0.84
-1.152
-1.664
0.424
-1.72
-3.232
0.712
-1.192
-0.048
-2
-2.904
-0.576
-5.28
-2
-1.24
-3.136
-2.008
-1.232
-3.296
-0.52
-2.416
-2.152
0.248
-3.016
-1
0.376
-2.896
-1
-3
-0.96
-0.008
-4.776
-2.208
-0.696
-2.6
2.008
-2.408
-1.032
-0.608
-2.68
-1.464
-2.072
-2.168
1
-1.96
-1.912
-1.224
-1.352
-0.744
-1.16
-1.936
-0.016
-3.872
0.44
-0.68
-0.584
-1.256
-0.696
-3
-0.4
0.344
-2.984
-0.28
-3.408
2.36
0.376
-2.736
-1
-2.168
-1.64
-1.072
-3.928
-0.072
-0.784
-1.12
0.664
-1.136
-1.792
-1
-2.92
-1.816
-2.72
-4.008
1
-1.4
-0.944
0.48
-3.976
-0.792
-2.32
-3.776
1.808
-3
-1.096
-1
-3.744
0.472
-1.328
-1.816
-0.36
-1.368
-2
-2.144
-1.976
-0.56
-2.176
-3.28
-0.184
-2.504
-1
-1.304
-4.688
-0.944
-0.04
-0.92
-1.176
-2.456
-2.368
-1.768
-2.84
0.016
-2.248
-2
-0.472
-3.48
-0.568
0.08
-2.336
-0.424
-0.24
-2.808
1.568
-3.808
-1.952
-2
-3.856
-1.192
-0.712
-2.616
-0.48
-3.136
-1.68
0.768
-1.432
-0.44
0.056
-3.304
0.872
-2.312
-1.44
-1
-3.632
0.728
-1
-2.92
1.968
-3
-2.104
-0.696
-3.2
0.512
-2.408
-3.376
-1
-2.56
-1.952
-3.392
-2.584
0.104
-1.28
-1.912
0.776
-3.648
-1.872
-1.24
-1.968
-0.016
-2.68
-0.448
-1.32
-1
-1.024
-0.784
-2
-2.6
-2.104
-3.488
-1
-1
-0.92
2.44
-0.944
-1.432
-2.168
-1.88
-3
-2.952
-0.12
-1.856
-1.88
-0.664
-2.352
-1.528
-1
-3.84
0.552
-0.176
-2.488
1
-2.4
-3.592
-0.392
-1.512
0.584
-0.64
-3.888
-0.128
-1
-0.064
-0.84
-3.616
-1.528
-1.328
-3.912
1.72
-1
-4
-1.536
-0.976
0.2
-1.392
-3.312
-1
-2.752
-0.8
-0.456
-3.208
-1
-1.032
-2.96
-0.088
-2.864
-2.184
-0.536
-3.28
-1.656
-0.496
-1
0.528
-4.48
-1.408
-2.768
-2.344
-0.424
-2
-5.424
1.568
-3.712
-2
-1
-2.048
-1.192
0
-2.808
-1.24
-3.848
-2.68
-0.848
-1.432
-0.48
-1.944
-3
1
-2.328
-1.88
-1.464
-3.448
0.728
1.472
-1.96
0.952
-4.608
-1.104
-0.696
-2.4
0.256
1
-1.656
-0.608
-0.24
-0.464
-1.464
-1
-0.632
-0.96
-3.912
-1
-1.824
-2.616
-2.16
-3.936
-1.016
0.064
-2
1
-0.376
0.72
-1
-2.352
-1.2
-1.104
-2.984
-1
-2.632
-2.48
-1.624
-1
-1.216
-2.168
-2.64
0.856
-3.048
-1.024
-0.784
-4.64
0.992
-0.352
-2.472
-0.936
-2.2
-0.816
-0.72
-2.512
-2.208
-1.6
-3.24
0.784
-3.256
-3.168
-1.16
-2.664
2
-3.016
-3.936
2.6
-1.128
-2.352
0.776
-3.728
-0.6
-2.528
-1.416
-0.536
-2
1
1.432
-1.656
0.408
-1.496
-2
-0.304
-3.792
-1.776
-1.032
-1.96
1.56
-0.728
-2
0.536
-2.72
1.688
-2
-2.152
2.056
0.08
-2.272
-1
-3.336
-1.136
2.04
-3.616
0.144
-1.288
-1.76
0
-1.856
1.52
0.856
-2.808
0.8
-2.136
-2.672
-0.464
-0.568
-2
-2.416
-1
-0.248
-2.328
-1.28
-0.464
-2.816
1.136
0.472
-2.88
-1.016
-1.888
-1.312
-0.848
-1.2
2.008
-0.704
-0.656
0.216
-0.12
-1.44
-1
-1.416
1.472
0.36
-3.184
-0.776
-3
-0.616
-0.32
-1.968
1.904
-1
-1.224
-1
-2.96
-0.744
-1.304
-2.296
-0.4
-1.76
-4.008
0.912
-2.224
-0.56
0.376
-2
-1.784
1.328
-2.76
-0.928
-1.048
-0.024
0.784
-2.28
-0.84
-1.136
-2.528
1.064
-1.56
-1.816
0.544
-3
-2.104
-1.2
-1.296
-0.304
-1.512
-1.792
-0.32
-6.328
-0.936
-3.032
-2.936
0.68
-2.616
-0.824
-1
-2.728
0.4
-1.528
-3.168
-1.928
-1
-1.56
0.824
-1.688
-3.704
-1
-3
1.544
-2
-1.888
-1
-1.88
-1.264
-2.32
-0.448
-1
-1
-0.312
-0.248
-1.424
-0.36
-1.92
-2.568
0.848
-1.336
-1.56
0.04
-2.616
-1.144
-1.096
-0.856
1
-1.904
-2.808
0.288
-2.384
0.76
-0.288
-1
-0.616
-1.84
0.04
-1.944
-1.576
-1
-0.312
-1.44
2.84
-3.448
-0.728
0.648
-1.96
0.968
-2.72
-3
1.696
-1
-1.496
-1.112
-1.688
-0.568
-0.68
-1.976
-1
-2
-0.896
-0.96
-1.456
-0.224
-1
-5.36
-1.24
-2.032
0.952
0.936
-4.776
0.52
-3.168
-2.768
-0.392
0.056
-2.2
1.24
-1.488
-0.088
-1.408
-2.56
-0.688
-4.264
-1.136
-1.336
-2.76
-1
-4
-1.096
2.568
-4.4
-0.84
-1.784
-3.472
-0.312
-0.56
-2.592
-0.544
-1.496
-1
-0.4
-2
-1.696
-3.512
-4.376
0.36
-2.112
0.808
-1
-2.936
-1
-2
-1
1.776
-2.184
-0.64
-2.16
-0.248
-1.072
-1.976
0.76
0.824
-1.688
-0.816
-1.248
-1.8
-1.544
-1.624
-1.944
-0.016
-1.96
1.472
-0.456
-1
-1.232
-2.72
-1
-1
-1.576
-1
1
-1.136
-0.848
-1.672
-1.848
-1.48
-4.808
-1
-1.096
-3.856
2
-1
-1.096
1.568
-2.616
-0.96
-2.712
-3.664
-1
-3.704
-0.96
-1
-2
-0.992
0.704
-3.32
-1.768
-1.552
-1
-1.176
-4.8
-0.024
-1
-1.896
-0.152
-0.6
-1.248
-0.408
-1.688
-0.568
-2.12
-0.512
-0.536
-2
-2.424
-1.32
-0.728
-0.224
-1.176
-1.488
0.84
-1
-1.032
-1.128
-3.664
-2.16
-1.168
-2.512
-1.304
-1.648
-1.4
-0.104
-2.504
-1.544
-0.856
-1.2
-1.752
-1.528
-1.784
-0.168
-3
1.072
1.832
-1
1.856
-1.76
-1.336
-0.784
-2.472
-0.56
-1
-2.184
-1
-1.488
-1.656
0.2
-1.296
-0.784
0.232
-3.128
-1.32
-1
-0.808
-0.064
-3.904
-0.24
-1.36
-2.176
-1.224
-2.912
-2.64
-0.896
-2
-1
-1.488
-3
-1.392
-1.344
-1.224
-1.248
-0.8
-1.696
-1.312
-4.776
0.96
-2.88
-3
1
-1.368
1.84
-4.04
-1.344
-1
-1.576
-1.888
0.08
-2
-1.232
-3.336
-2.56
-1
-2.808
-1
2.424
-1.952
-1
-2.904
-3
0.424
-1.616
-1.2
0.152
-2.664
0.232
-3.272
-0.48
0.416
-2.576
-1.248
1.016
-3.16
-1.304
-4.816
-2.32
2.648
-1
-0.024
-1.056
-2.792
0.544
0.8
-3.752
-1.704
-1.656
-1.176
-0.12
-1
0.392
0.504
-2.528
-1.64
-2
-1.552
-1.528
-1
-0.24
-3.064
-2.968
0.936
-4.552
0.36
0.792
-4.744
-0.304
-1.944
-2.4
-1
-2.512
-2.088
-1.448
-3.64
-2.064
-2.056
-2.488
-1.168
-1.24
-1.712
-1.024
-6.904
-1.144
-2.76
-2.168
1.352
-2.472
-1.248
-1
-2.408
-0.368
-1.496
-1.552
1.6
-2.648
-1.48
-0.256
-3.792
-2
-1.224
-3.872
-0.016
-1
-3.16
-1.872
-2.648
0.88
-1.912
-0.96
-0.632
-2.752
-1.392
-2.464
-2.44
-0.608
-3
-1.112
-1
-2.2
-0.848
-0.208
-1
0.976
-4.92
-2
0.272
-2.816
-2.696
-2.44
-2.656
-1.752
-2.576
-1.944
-0.48
-1.864
-0.384
0.328
-3.56
-1
-1.192
-0.856
0.712
-3.904
0
-0.808
-2.192
-1.288
-1
-1.76
-1
-4.656
-0.304
-1.704
-2.52
0.584
-2.696
-0.752
-1
-4.28
-0.232
-1.368
-4.32
-0.088
-1.12
-2
0.056
-3.376
0.936
-2.2
-2
-0.888
0.032
-1.784
2.32
-1.488
-2.072
-1.832
-4.16
-1
-3.272
-3.328
-1.824
-3.744
-0.08
-1.128
-3.952
1.616
-4.216
-1.32
-1.792
-3.976
-1.304
0.056
-1.2
-1.552
-0.016
-1.544
-1
-2
-2
-1
-2.568
0.664
-2.24
-1
1.904
-2.952
0.784
-1
-4.496
-1
-2.416
-1.624
0.08
-1
-2.456
-3.496
-3
-0.4
-2.408
-1.088
0.488
-4
-1.52
-3.224
-3.936
1.872
-2.936
-1
-1.744
-3.472
1.104
-1
-2.64
-0.472
-1
0.216
2.536
-1
-0.648
-0.032
-3.816
-0.248
-1
-1.24
0.792
-2.944
0.976
-1
-1.912
2.592
-1.816
-0.696
-0.72
-2.656
0.496
-0.152
-1.472
-0.52
-2.728
-2.08
0.656
-3
-1.76
-1.192
-1
0.616
-1.048
-2
-0.952
-4.712
-1.72
-1.192
-1.24
0.136
-1.656
-0.536
-0.272
-2.56
-3.112
-2.12
-3.248
0.328
-4.28
-0.536
1.08
-2.864
0.912
-1.04
-2
0.72
-2.792
-0.304
-1.8
-4.008
0.224
-3
-2.392
-1.44
-2.024
-3.608
-1.832
-3
-1.68
-2.544
-1
2.296
-2.744
-1.92
0.904
-2.968
-0.32
-1.776
-1
1.376
-2.232
-1
-1.296
-1.8
-0.896
-0.008
-3.544
-1
-1.64
-2.376
-1.264
-2.216
-1
-2.12
-1.784
-1.976
-2.904
-0.288
-1.88
-1.832
-1.432
-3.208
-4.312
-0.64
-2.184
-2.368
-0.488
-2.104
-1.2
-4.352
-0.696
-1
-4.416
-3.2
-1.336
-3.872
1.904
-3.904
-1.08
0.616
-4.472
-0.896
-1.272
0
0.16
-0.504
-2.856
-2.976
-2.56
-2.04
-1.064
-2.408
0.248
-2
-2.696
-1.416
-2
0.016
-0.96
-4.824
-1
-2.712
-1.928
1.16
-2
-0.008
-1.576
-2.416
-1
-2.592
-0.848
-1.672
-3.424
-0.76
-1.384
-3.712
-0.904
-1.096
-4
-1.048
-2.616
-1.144
-1
-5.52
-2
-2
-2.768
-3.136
-1
-1.528
-1.848
-2.752
-1
-3
-0.84
-0.184
-2
-1
-1.12
-2.008
-0.224
-3.48
-3.456
0
-1.752
-1.296
-3.28
-3.216
-1
-2.56
-3.072
-0.664
-3.368
-1
-1.088
-1.776
0
-1.512
-1.92
-0.032
-4.888
-2.064
-2.776
-4.36
-0.04
-2.488
-2
-0.352
-2.8
-0.344
-1.512
-0.544
-0.592
-2.72
-2.44
0.208
-3
-2.16
-1.72
-2.856
-1.024
-2.904
-1.432
-1.48
-3.664
0.92
-1.68
-0.624
0.64
-2.592
-2.912
-0.992
-1.344
-1.4
-1.352
-2.784
1
-3.584
-0.84
-1.112
-1
-1
-1
-2.84
0.744
-3.648
-3
-2.456
-3.36
-0.632
-3.336
-2.856
-1.024
-1.44
0.176
0.312
-5.224
-1
-1.6
-3.392
-0.208
-2.056
-2.984
-0.04
-4.648
-0.408
1
-3
-4.16
-3.36
-2.128
-0.152
-4
-1
-2.296
-3.232
-0.336
-1.864
-0.28
-1.384
-3.144
0.424
-0.192
-6
-0.192
-3.904
-0.432
-2.04
-1.24
0.56
-0.992
-2.152
-1
-1.52
-0.112
-0.12
-4.12
-3
-1.28
-2.84
-0.736
-2
-0.824
-1.12
-2.992
-0.112
-4.168
-1.304
-0.2
-3.504
-1.704
-0.968
-1.392
0.68
-2.512
-1.608
-1
-1.368
0.32
-0.544
-3.552
-1
-1.64
-1.84
-0.096
-3.952
-2.128
-1.888
-2.84
-0.04
-2.488
-4.696
-2.648
-1
-0.344
-1.008
-2.632
-0.184
-3
-0.376
-2.264
-2.568
-2.328
-0.24
-3.928
-0.048
-2.904
-1.216
0.12
-4.328
-2.648
-0.472
-2.376
-2
-4
-2.368
-1
-1.448
-1
-1.352
-3
-1.232
-2.624
-1.84
-2
-2
-0.968
-1
-2.92
-0.256
-2.12
-0.224
0.456
-4.36
-1.104
-0.168
-2.928
-0.488
-3
-1.216
0.312
-2.296
-1.504
-3.4
-2.696
0.896
-2
1
-1.96
-1.088
-1.136
-1.448
-0.464
1.72
-1.344
-2.256
-0.88
-1
-0.56
-2.728
-2.232
1.328
-4.424
-2
-1.192
-5.712
-0.096
-1.952
-3
1.712
-1
-1.144
-2
-1.76
-0.576
-3.312
-2.152
-1
-2.04
-3.112
-1.696
-0.624
0.984
-1.56
-2.536
-2.632
-2.272
-1
-1.08
-1.008
-1.056
-1.792
-0.608
-1
-4.76
-1.296
-1
-1.392
0.12
-1
-2.608
-1.248
-2.472
-2.08
-1.272
-1.224
-1.472
0.232
-3.76
-1.032
-3.92
-1.128
-1
-0.84
-1.624
-0.952
-3.912
-1.352
-3.2
-0.448
-1.496
-2.088
-0.592
-2.08
-1.064
-0.792
-1.784
-0.168
-1
-5.712
-1
-0.928
-4.072
0.52
-1.832
-2.216
-0.944
-1.688
1.64
0.224
0.088
0.512
-3.344
0
-0.056
-0.088
-0.256
-1.416
-2.84
-1.448
-3.872
0.032
-0.936
-3
-1
-2.648
-0.672
-0.728
-3
-2.368
-2.088
-1.928
2
-0.2
-3.04
-1
-2.296
0.248
-1.4
-3.24
-0.104
-2
-1.992
0
-3.736
-1
-2.448
-2.696
0.6
-2.344
-1.752
-3
-4.528
-2.08
-0.432
-3.232
-1
-1
-0.76
1.424
-1
-0.904
-2.048
-1
0.856
-1.712
-2.288
-0.616
-0.28
-1.576
-1.328
-1.92
-1.432
-2.04
-2.584
-0.848
-3.376
-0.344
-1
-2.536
0.448
-0.864
-1
-1.08
-4.952
0.776
0
-1.848
1.4
-4
-1
2
-2.824
-0.76
-2.072
-2.608
-1
-2.472
-1.68
0.456
-2.552
-1.824
-0.384
-1.84
-1
-1.952
-1.128
-0.888
-0.32
-1.208
-2.488
-3.392
0.592
-2.2
-0.896
-1.496
-2.088
-2.776
-0.44
-3.064
-1.208
-1.216
-1.832
0.4
0
-1.928
-1.952
-3.784
-1
-1
-0.216
0
-3.752
-0.08
-0.184
-2.824
0
-1.896
-1
-0.704
-4.176
-1.232
-1.624
-3.2
1.888
-3.064
-0.952
-1
-2.84
-1.256
-2.472
-2
0.184
-1.04
-1.368
-1.416
-4.464
-3
-3.44
-1.608
-0.032
-2.592
-2.256
-1.2
-4
-1.792
-1.28
-2.984
-1
-4.56
-2.408
-1.448
-3.536
0.6
-4.032
-3.752
1
-1.944
-0.52
0.408
-2
-2.664
-1.576
-1.52
-0.384
-1.144
-1
0.904
-4
0.664
-0.808
-1.288
-0.808
-3.28
-2.288
-1.992
-4.616
-0.568
-1.48
-4.056
0.152
-1.376
-1
-1.28
-6.304
-1.184
-2.136
-2
-1.12
-3.016
-3.056
-1.104
-3.696
-1.6
-2.752
-0.368
1.312
-1.608
-1
-3.072
-2.144
-0.584
-2.104
-4.04
-1.272
-1.224
0.824
-1.128
-6.44
-1.032
-3.904
-1.192
0.664
-6.04
-1.624
-1.256
-3.392
-1
-3.4
-2.792
0.48
-2.544
-1
-3.72
-3.752
1.208
-0.432
-3.16
-0.36
-4.712
-0.976
-2.904
-2.928
1.64
-0.664
-2.648
-0.472
-1
0.84
-1.368
-2.088
0.496
-2.552
-2.4
0.296
-3.392
0.024
-1.208
-3.52
-0.888
-1.192
-0.968
-0.936
-2.92
-0.384
-2
-4.328
-1.544
-3.04
-1.736
-1.168
-2
-0.56
-1.32
-2.216
0.968
-1.704
-0.256
-0.2
-5.24
-1
-1.112
-1.96
-1.08
0.088
-3.864
0.184
-4
-0.56
-3.688
-3.128
-0.424
-1
-0.12
-2.432
-3.312
-0.664
-0.864
-0.52
-0.192
-2.288
-0.808
-0.192
-1
2.712
-1.616
-0.856
1.424
-3.84
-1.288
-1.992
-3.384
0
-1.56
-5
-1.424
-1.376
-0.688
-1.56
-2.304
1.08
-1.864
-2.648
-1.96
-1.992
-0.168
-0.688
-3.848
-1.2
-2.504
-2.592
-1
-1
-3.2
-2
-2
0.248
-0.736
-1.68
-1.272
-2.776
-1.472
0.488
-2
-0.064
-0.016
-3.064
-0.776
-6.04
-1.624
-0.488
-2.392
2.944
-1
-1.896
0.504
-1.456
0.632
-1
-3.44
0.528
-1.648
-1.496
-0.48
-1.928
-3.928
-0.952
-1.928
0.4
-3.496
-2.216
-1
-3.688
-0.72
-1.368
-3
-0.008
-2.896
-0.6
-1.352
-1.696
-2.72
-1.416
-1.84
-0.112
-3.064
-0.968
0.84
-2.76
-1.128
-0.472
-1.776
-1.544
-2.4
-2.104
0.664
-2.536
-0.024
-1.56
-4.608
0
-0.184
-2
-2.4
-1.848
-1.896
0.832
-3.976
-0.96
-3.472
-2.408
1
-2.768
2.04
-0.344
-2.376
-1
-2.584
-1.6
-2
-1.384
-2
0.136
-3.28
0.192
-3
-1.712
1.808
-2
1.76
-0.712
-2.712
-0.192
-2.28
-2.864
-1.328
-3.616
0.84
-1.56
-0.056
-1.424
-1.752
-0.672
-0.84
-3.232
-1.816
0.456
-4.648
0.92
-2.96
-1.224
-0.104
-3.24
0.2
-2.504
-1
-0.312
-2.824
-0.2
-0.56
-0.464
-0.832
-3.264
-2.36
-0.272
-1.776
-3.296
0.488
-0.92
0.032
-1.048
-2.936
-2.224
-1.36
-2.208
-0.488
-2.696
-4
-2.8
-1.448
-0.496
-1.912
-0.592
-1
-3
0
0.136
-0.664
0.76
-3.856
-0.024
-1
-2.856
2.4
-1.664
-2.432
-2.056
-3.752
-1.16
-1.592
-3.544
-0.008
-1.344
-2.4
0.352
-3.304
-1.72
-0.416
-1.84
-1
0.808
-2.952
1.904
-1.92
-2.512
-1.648
-3.328
-0.728
-0.72
-2.632
1
-0.608
-0.048
-1
-1.784
-1
0.112
-4.008
-3
-1
-2.896
0.832
-1.992
-1.04
-1.912
-2.272
0.632
-1.304
-0.56
-1.672
-1.376
-2.12
-1.64
-2.56
-1
-2.92
-2.328
-0.864
-4.8
-1.384
-1.576
-2.616
1.856
-2
-2
1.096
-3.568
2.656
-2.52
-3.152
-1
-2.848
-0.296
-0.52
-4
0
-1.504
-3.688
-1.28
-1.464
-2.632
-1.136
-3.912
-1
-2.984
-2.888
2.104
-1.848
-1.8
-2.008
-2.704
-1.344
-1.04
-2
-0.512
-1.928
-2.416
1.896
-2.04
-0.184
-2.224
-3.472
0.616
-1.92
-0.904
-1
-2.872
2.44
-3.2
-3.416
-2.256
-3.088
0.944
-2.4
-2.552
-1.992
-3.368
0.856
-1
-1.624
0.736
-0.648
-4.328
-1
-1
-2.856
1.904
-3.712
2.16
-1.168
-4.352
-0.056
-0.376
-0.72
-1
-3
-0.008
0.656
-3.4
-1
-2.216
-1
-1
-4
-1.44
-0.192
-2.92
1.904
-3.76
-0.128
-0.176
-2.656
-1.088
-2.36
-1.736
0.168
-1.536
-0.536
-0.44
-1.392
0.376
-2.184
-1.504
0.8
0.696
-1.688
0.664
-2.992
-1.08
0.088
-2.728
1.08
-1.84
-2
-0.344
-3
-2.848
-0.528
-2.04
-3.272
-0.92
-1.992
1.288
-2.24
1
0.424
-2.616
0.904
-1
-1.096
0.712
-1.856
2.04
-1.56
-1
0.328
-3.464
-4.024
-1.56
-3.112
-3.304
-2.376
-1.344
-0.56
-1.232
-2.448
-2
-0.912
-0.92
-0.992
-4.664
-0.312
-1
-1
0.504
-1.296
-1.344
-0.608
-2.32
-2.488
-2.392
-2.168
-0.368
-0.96
-2.728
0.328
-3.472
-1.256
-1.32
-0.936
0.016
-4.808
-0.888
-0.52
-3.792
-1
-1.784
-2.056
-0.6
-3.448
-1.504
-0.28
-1.368
0.28
-1.312
-2.944
1.352
-2.832
0.88
1.568
-0.952
-1.024
-0.856
-1.36
-0.832
-3.568
-2
-1.752
-1.08
1.592
-4
-1.016
-1.448
-2.4
1.704
-1.304
-1.72
-0.416
-2.84
-1.776
-0.128
-2.952
-0.064
-0.76
-1.256
0.648
-2.552
-0.816
-1.68
-4
-2.832
-2.144
-3.024
0.76
-2.392
-0.968
0.816
-2.504
2
-1.304
0.104
2.608
-1.024
-2
-1
-2.728
-0.184
-0.768
-3.28
0.016
-2.872
-2
-1.584
-3
-0.432
-3.152
-2.328
0.288
-1.24
-0.848
1.848
-1.616
-0.904
-5
-3
0
-4.424
-0.768
-0.04
-2
-0.344
-1.616
-0.432
0
-1.36
-0.576
-0.88
-2.656
-2.88
-1.928
-1.448
0.728
-2
-2.92
-0.016
-1.832
-0.52
-1
-1.8
-2.248
-3
0.656
0.176
-2.56
-0.464
-1.392
-1.416
1.368
-2.32
-1.912
0.328
-5.944
-1.872
-0.16
-2.84
2.904
-2.808
-1.224
-0.52
-1.792
-0.512
-1.696
-2.352
-1.2
-3.208
-0.992
-0.368
-0.776
-0.64
-0.248
-2.208
-1.216
-2.336
-4.52
-0.072
-5.88
-1.976
-3.712
-3.88
-0.84
-0.92
-0.848
-1.128
-3.64
0.184
-2.632
-2.496
0.104
-1.8
-1.536
0.088
-3.976
0.792
-1.16
-6.328
-1.064
-2.032
-1.032
-2.6
-3.616
0.648
-0.328
-1.728
-1.64
-2.264
-0.832
-1.144
-2
-1
-2.176
-4.312
-1.296
-2
-3
2.088
-3.792
-1.056
-2.008
-4.96
0.088
-1.592
-0.552
-0.536
-1
0.016
-1.624
-0.272
1.056
-2.44
-1.136
0.848
-1.664
-1.136
-1.24
-3.848
-0.576
-3.808
-2.048
0
-1.952
0.712
-0.712
-1.384
2.04
-1.848
-0.344
0.152
-3.864
-1
-0.36
-1
1.496
-3.672
-0.16
0.304
-1.816
-1.728
0.648
-1.84
3.952
-1.776
-0.312
-2.392
-1
0.008
-3
-2.376
-0.608
-3.24
-0.488
-0.928
-2.752
0.736
-1.96
-0.728
-0.224
-2.176
0.384
-1.08
-1
-1.032
-3.488
-1.112
1.52
-4.376
-2
-0.088
-2.296
0.2
-3.312
-2.984
-1.456
-1.408
-1.64
-2.936
-2.472
0.568
-1.504
-0.64
-1.928
-1.976
-2.048
-0.928
-2.76
-0.168
-0.352
-1
2.688
-2.64
-1.224
-1.632
-1
-1.552
-3.4
-2.24
-0.608
-2
-1
-1.48
-0.888
-1.064
-4.032
-0.064
0.76
-1.872
-1.352
0
-1.544
0.36
-2.528
-1.664
-0.072
-2.464
-1
-1.392
-2.968
-1
-2.496
-3
-1.152
-1.792
-0.056
-1.008
-1.96
1.648
-2.456
-1.736
-1.464
-2.88
-0.328
-2.12
-2
-2.472
-1.96
-2.704
-1.768
-1
-0.56
-1
-1.808
1.568
-1.288
-0.952
0
-0.904
-0.288
0.568
-3
0.28
-1
-1.336
-1.696
-2.136
-2.4
-0.472
-2.152
0
-1
-1.6
-1
-3.632
-1.864
-2.088
-3.84
-1.016
-1.776
-1.208
1
-2.6
-0.24
0.184
-2.656
1.216
-0.12
-2.464
-1
-1.832
-0.16
-1.32
-2.728
-2
-2.528
-0.744
-1.48
-2
1.92
0.936
-1.888
0.36
-2.544
0.488
-2.088
-1.352
-1.4
0.344
-0.992
-0.088
-2.224
-3.2
0.752
-1
-1.92
1.992
-2.76
-0.072
-1.048
-1.024
0.784
-0.12
-0.336
-1.784
-1
0
-2.28
-0.224
1.456
0.512
-0.552
0.2
-2.24
-1
-2.512
-2.792
-1.16
-1
-0.808
-0.048
-1
1.76
0.872
-1.176
0.224
-3.64
-1.28
-0.632
-2.584
-2.464
-2.952
-3.12
1.04
-1.344
-1
-1.248
-1.6
2.392
-1.104
-1.832
2.952
-2.84
2.384
-0.592
-0.184
-0.304
-3.16
-1
-0.624
-1
-0.944
0.56
-2.568
-1.384
-1.672
-1.712
-1
-5.424
-1
-0.288
-3.904
0
-1.712
-1
0.856
-3.424
-1.72
-2.712
-3
-1.768
-2.84
-2.96
-1.944
-1
-0.496
-0.296
-1.16
-0.768
-1.736
-1
2.648
-3.88
-3.008
-2.72
-2.792
0
-2.4
0.008
-0.704
-2
0.04
-1.8
-2.976
0.392
-0.248
-2.16
0.72
-2.728
-0.552
-1.352
-2.744
-2
-2.064
-1
-0.936
-2.664
1.52
-1.376
-1.256
0.696
-1.944
-1.4
-0.76
-1
-1.544
0.184
-0.28
-1
-1.792
-3.352
-1.336
-4.52
-1
-3.952
-3.928
-1.072
-2.88
-1.672
0.352
-3.944
1.064
-1
-1.592
-1.456
-2.488
-1.552
-0.6
-1.296
0.088
-1
-2.376
-1.16
-3
0.128
0.92
-2.936
-2.84
0.872
-2.176
0.104
-2.456
-0.96
-2.264
-2.584
0.68
-2.488
-0.56
1.432
-2.312
-0.408
-1.496
-1.8
-0.152
-1.416
-5.72
-0.056
-3.8
-1.176
0.728
-2.816
0.768
-2
-1.328
-1
-2
-2.944
0.08
-2.272
-1
-0.672
-1.424
1.04
-1.192
-1.424
0.808
-0.952
-1
-0.904
-2.096
-1.288
-2.616
-0.48
-2.136
-4.328
-0.92
0.296
-1.96
-0.472
-1.424
0.128
0.344
-2.88
-0.536
1.08
-1.592
-1.088
-5.8
-1.024
-0.056
-2.792
1.088
-2.6
-2
-0.704
0.032
-1.352
-0.36
-2.488
-1.536
-2.248
-2.528
-1
-3.728
-0.776
-1.176
-4.616
-1.08
-1
-3.952
0.744
-0.888
-1.32
-0.584
0
-0.912
-1
-0.2
-0.552
-1.496
-1
0.552
-2
-2.376
-1
-2.92
-0.504
-3
-1.928
-3.024
-3.928
-1.216
-0.52
-3.336
-1.216
-3.944
-1.248
-1.56
-1.592
-1
-2.992
-0.552
1.6
-2
-1
-1
-4
-1
0.44
-3.744
0.936
-3.904
-3.84
1
-1.824
0.328
-0.456
1.4
-0.368
-1.584
-1.392
0.024
-1.88
-1.392
-1.344
-3.112
-1.248
-2.8
-0.152
-3
-3.888
-1.016
-1
-3
-2.272
-2.816
-2.232
-0.16
-0.984
-1
-2.88
-2.472
-0.52
-2.296
-0.232
-1.336
-2.712
-2.28
-2.192
-2.568
-1.192
-5
1
-0.904
-2.904
1.568
-2.616
-1.2
-1
-3.656
-0.304
-1.704
-1.52
0.888
-3
-2.248
1.36
-3.16
0.536
-1.368
-1.728
1.912
-0.16
2.952
0.888
-1.792
-2
-0.6
-2.248
-0.704
-0.312
-2.568
0.68
-2.024
-0.608
0.92
-2
1.68
-1.816
-4.88
0.296
-1.128
-3
-1.032
-3.952
3.68
-0.552
-2
1.584
-3.232
0.088
-3
-0.6
-1.448
-0.504
-2.176
-0.816
-2.72
-0.752
1.416
-3.352
-0.496
-2.76
-1
-1.024
-4.904
1.712
0.76
-3.496
0.352
-1.472
-1.312
-0.72
-3.592
-0.736
-1.496
-3
-1.2
-1.056
-4.392
0.488
-1.624
-1.36
1.664
-4.808
1.952
-1.968
-3
0.872
-1.648
0.88
-0.456
0.04
-0.104
-1
-3.856
-1
-1
-1.432
1.624
-2.704
1
-0.2
-1.088
-1
-2.888
-0.984
-0.92
-1
-1.272
-2.632
-2.232
-0.28
-3.016
-1
-1.152
-2.416
-1
0.272
-2.848
-0.008
-2
-0.52
-0.384
-4.424
-2
-1.096
-3
2.808
-4.712
-1.576
-2.232
-2.52
-1.288
-3.312
-0.92
-0.432
-1
-1.584
-2.696
-2.128
-0.344
-2.12
-0.768
2.08
-1
-1.736
0.8
-1.984
0.776
-2.792
-1.152
-1
-4.008
-2.296
-1.592
-1.784
-1.44
-2.024
-0.536
-1.416
-2.264
-0.4
-1
-3.552
1.472
-1
-1.6
-0.032
-0.984
-1.064
-1
-2.68
2.168
-1.232
-1
0.352
-1.2
-2.24
-0.016
-1.088
-0.592
-3.28
-2.44
-0.264
-2
-0.336
-1.12
-1.64
2.904
-1.976
-1.144
-0.76
-2.328
0.352
-0.208
-2.312
-0.36
-0.96
-1.28
1.52
-2
-0.8
0.944
-2.392
0.744
-1.416
-1.04
-1.336
-3.808
0.952
-0.936
-0.16
-0.872
-0.296
-0.896
-1
-2.36
-1.104
-0.752
-0.536
-1
-0.76
-1.824
-1.344
-2
1.496
1.4
-1.24
-1
-0.944
-0.984
0.92
-2.824
2.048
-1.896
-1.464
-0.56
-2.688
-1.256
0.272
-2.944
-1.52
-1.432
-3
-0.344
-1.288
-0.76
2.848
-0.712
0.808
-2.144
-2
4.712
-1.904
-1.432
-0.808
-2
-0.44
-0.328
-3.384
-1.432
-2.04
-1
1.576
-1.376
-0.344
0
-2.536
-1.184
-3.864
-3.648
0.84
-2.984
-0.168
-1.792
-2.456
-1.4
-3.504
-2.592
0.376
-2
0.12
-2
-3
-0.168
-1.368
-1.36
-0.816
-2.552
1.176
-1.256
-1.84
-0.16
-4.904
-2.064
-1
-4.36
0.376
-2.976
-1.304
1.296
-1.6
-1.24
-0.008
-1
0.816
-1.64
-1.688
-1
-3.216
-1
-2.12
-1.928
1.88
-0.952
-0.072
0.88
-0.664
-1.648
-1.736
-5
-0.36
-0.184
-1.824
0.512
-1.448
-1.2
-2.352
-2.784
0.488
-1.792
-2.68
0.664
-2.872
-1.968
-0.936
-1.08
-2.744
-4.296
-4.224
1.184
-1
0.896
-1.336
-1.928
-0.024
0.12
-2.432
-0.688
-1.296
-2.504
-1.6
-2.392
-0.208
-0.168
-0.984
-1.04
-3.736
2.32
-1.632
-1.232
1.88
-1.016
-1.752
-0.576
-1.528
1.44
-1.16
-3.464
0.672
-2.576
0.48
1.424
-1.856
-1.808
0.808
-4
0.856
0
-3.144
2.808
-1.24
-0.152
-1
-1.536
-1
-2.56
-1.112
-0.272
-2.624
-0.688
-1.56
-3.84
-0.184
-2.272
-1.912
-0.08
-3.984
2.72
-0.896
-2.696
-1.8
-1.504
-3.592
-1.968
-2.608
-1
-0.024
-1.536
-0.416
-2.368
-1.68
0.184
-3.552
-0.472
-1.128
-3.6
-0.064
-1
-2.064
-0.888
-3.68
-2
-0.976
-2.912
-2.648
-1.6
-3.448
-0.496
-2.368
-1
-0.44
-0.688
-1.208
-2.648
-1.496
1.52
-4.784
-1.072
-3.952
-3
-2.12
-3.832
-1.08
-0.208
-2.688
-1
-2.776
-2.912
-1
-2.448
-2.2
-0.056
-2.696
-0.744
-1
-3.36
-1.888
-3
-0.016
-1
-4.76
-0.512
-0.472
-5
-0.456
-1
-1
-0.584
-4.072
-2.512
0.24
-3.04
-0.376
-3.704
-1.008
1.2
-3.848
-2.104
-3.112
-3
-1.08
-1.824
0.048
-0.632
-4.304
-1.28
-3.688
-1.752
-2.424
-1.528
-0.52
-0.296
-2.616
-0.992
-2.576
-4.56
-0.152
-1.856
-0.808
-1.096
-3
-0.288
0
-6.568
0.616
-3.8
-1.576
-2.328
-3
-1.568
-0.52
-5.112
0.728
-0.752
-1.36
-1
-3
1
-3.864
-1.824
2.8
-3.976
-2.056
-1
-3.848
1.2
-1.76
-3.296
-2.312
-2.216
-2.32
-2.536
-4.072
-1.584
-2.576
-2.04
-0.36
-4
-1.824
-1.384
-1.92
-1.032
-1.952
-4
-1
-2.36
-0.208
-1.488
-1.608
-0.352
-2
-2.344
-1.504
-3.456
-1
-1.36
-3
-1.736
-3
-1.336
0.76
-2.784
-0.024
0.976
-2.288
-1.24
-1
-1.648
-1
-1.688
0.2
-1.776
-3.088
-1.504
-1.896
-1.4
-2
-3
-1.976
-1.832
-2.52
0.776
-3.064
-2.968
-1
-3.84
-2.128
-3.648
-4.328
-0.816
-4.4
-3.104
-1.416
-1.536
-0.024
-2.2
-2.824
0.344
-1.592
-1.256
0.2
-2
-3.584
0.664
-4.968
0.92
-4.56
-2.272
-1.184
-2
-0.28
-0.032
-0.752
-2.272
-2.528
-2.04
-1
-3
-0.664
-0.864
-1
0.616
-2
-0.096
-1.048
-2
-0.192
-1.904
-0.144
0.616
-2.52
-1.152
-1
-2.848
-1.432
-2.56
-2.056
-0.576
-4.624
-1.672
-1.28
-1.768
-0.448
-3.136
-3.56
0.92
-1
-0.168
-1.792
-2.392
-0.6
-2.008
-2.888
-1
-2.216
-2.2
-0.512
-3
-0.584
-2.736
-3.04
-1.272
-1.672
-1.648
0.488
-3.84
-1.968
-1.968
-3
1.44
-2.2
-2
1.256
-1.304
-2.056
-1.6
-0.344
-1.504
-2.368
0.224
-1.08
-1.688
0.264
-1.648
-0.832
-1.36
-3.928
-1.904
-1
-2.928
-1.24
-1
-1.216
0.208
-2.376
-0.72
0.776
-1.912
-2.496
-1.896
-3.4
1.592
-3.392
-1.976
-0.04
-1.84
1.888
-2.192
-2.968
-1.968
-5.68
-0.64
-2.176
-3
0.912
-2
-1.472
-0.336
-3.072
-0.56
-1.76
-2.608
-1.656
-0.888
0
-0.2
-0.304
-3.688
-1.224
-3.976
1.76
-1
-2.544
-2.184
-3.304
-1.56
-1.672
-2.752
-1
-2.056
-3.04
-1.296
-3
0.336
-2.152
-4.04
0.192
-1.576
-1.808
-1.096
-4
-3.856
-3
-1.432
-1.576
-2.04
-1.576
-1
-2.232
-1
-1
-3.584
-1.152
-2.128
-2.344
0.16
-3.84
-0.816
-2.272
-3.736
-2
-3.96
-1.944
-0.896
-3.544
-1
-1.752
-2.592
1
-1.216
-0.88
-1.536
-1
-2.168
-1.736
-4.4
-1.544
-1.896
-2.12
0.488
-1.92
-1
-2.984
-1
-1.224
-2.84
-0.624
0.256
-3.088
-2.704
-2.2
-1.896
-0.984
-2.456
-3.592
-0.72
-2.376
-0.208
0.136
-3.496
-1.88
-3.144
0
-0.048
-2.928
0.52
-2.16
-4.568
-2
-3.752
-2.08
-2
-2
-2.504
-1.448
-2.6
1.352
-1.608
-1
-2.208
-2.68
-0.112
-1.128
-1
1
-1.92
-1.256
-0.824
-4.328
-1.272
-3.72
-3
0
-2.072
-1.56
-0.32
-3.608
-0.656
-2.184
-2.256
1.4
-3.696
-4.584
0.664
-4.008
-1.16
-0.824
-4
0.448
-2.768
-2.12
-0.344
-1.376
-0.152
-1.056
-0.52
0.136
-3.848
-0.32
0.56
-2.76
0.616
-1.144
-3.712
-1.048
-1
-2.048
-1
-4.568
0.424
-1
-1.864
0.336
-4.464
-0.16
-2.04
-3.584
-2.152
-1.752
-3.344
-2
-1.696
-3.448
-4.136
-4.648
-2
-3.976
-4.056
-0.896
-1.696
-0.2
-2.256
-3.112
-2.032
-3.648
-1.44
-2
-4
-2.752
-0.576
-4.08
-1
-1.448
-1.824
0.488
-2.84
-0.904
-0.016
-4.872
0.664
-2.36
-1.416
-1.256
-3.392
-0.056
-2.8
-2.552
-1.992
-1.368
-1.592
-2.36
-1.312
-2.208
-0.648
-3
-1
-2
-0.928
-0.048
-1.784
-2.12
-1
-4.568
-0.264
-1.752
-3.08
-1.592
-4.544
-1.504
-0.344
-2
-0.352
-1.304
-3.72
0.376
-1.68
-4.552
-2.256
-2.984
-2.032
-3.76
-1.128
-0.176
-3.328
2.368
-1.36
-3.104
-1.832
-3.536
-2.536
0.24
-1.392
-1.656
0.52
-1
0.6
-2.152
-1.688
-1.168
-3
-3.04
-1
-1.864
-1
-2.536
-0.28
0.344
-2.624
-2.12
-0.64
-2
-0.704
-4.768
-2.656
-0.864
-1.76
-1.808
-1.144
-3.616
0.808
-1
-1.096
-1.288
-3.856
-0.152
-3.28
-1
1.656
-1.848
-1.728
-0.04
-2
-2.152
-1.752
-2.344
1.16
-3.464
-1.448
-1.408
-6.472
-1
-1.992
-4
-0.208
-2.392
-1.4
0.008
-3.112
-0.032
-1.432
-3
-0.488
-2.856
-0.92
-0.472
-3.68
-4.184
-1.672
-2.648
1.616
-2.84
-1
-2.92
-3.936
-1.888
-2.52
-3
0.976
-2.392
-1.352
-2.6
-4.656
0.008
-0.456
-2.184
-0.36
-2.624
-2.208
0.568
-3
-0.12
-1.288
-3.928
-1.024
-3.784
-2.12
0.832
-1.568
-1.264
-1.688
-0.72
-1.04
-2.544
-3.016
-1.448
-2.2
-0.648
-1.304
-2.232
-2.792
-1.16
-5.664
-1.192
-3.952
-1.192
-1.92
-1.872
-1.472
-2.656
-1.272
-2.36
-1.368
-0.416
-1.608
-3.048
-1
-2.96
-4.936
-1.296
-2
-0.6
-2
-2.48
2.776
-1.008
-0.12
-1
-2
-0.92
-5.072
-3.72
2
-2.872
-0.272
-0.168
-1.48
-1
-1.536
-1.992
-1
-3.72
-0.808
-1.72
-4.712
-1
-1
-1.048
0.808
-2
-0.96
1.24
-2.712
0.992
-1.232
-0.864
-0.96
-2.416
-1
-1.376
-3.016
-0.72
-1.464
-2.448
-1.408
-1.912
-1
-1
-2.944
0.584
-2.392
-2.6
1
-3.816
-0.376
0.176
-2.12
-0.488
-1.928
0.832
1
-3.04
-1.728
-0.568
-0.648
0.256
-2
0.032
0
-2.744
-1.112
-1
-3.376
0.976
-0.088
-1.648
-1
-5
-1.496
-1
-4.184
-1
-1.248
-2.416
-0.352
-1.168
0.12
0.64
-0.88
0.904
-1.072
-3
2.16
-0.216
-1
-0.376
-2.36
-1
-3.088
-1.52
0.104
-1.8
-1.648
-0.912
-2.488
1.376
-1.16
-2.664
1.744
-4.92
-3
-0.92
-2.872
-0.176
-1.776
-0.544
-1
-1.632
-1.416
-0.216
-1.048
-0.44
-2.176
-2.312
-0.184
-2.256
-1.8
0.088
-1.896
-1
-2.008
-2.04
0.824
-2.456
-1
-2.84
-1.56
-0.312
-1
-1.848
-2
-2
-2.136
-0.92
-4.328
-1
-1.48
-2.848
-1.144
-0.904
-1
-1
-1.096
1.424
-0.712
-2.384
0.24
-1.712
-0.68
-0.848
-2.864
-0.44
0.056
-3.728
0.12
-2
-0.16
-4.232
-3.448
-1
-1
-0.92
1.976
-1.944
-1.416
-0.696
-1.4
-0.248
-0.704
-0.376
-1.608
-1.56
-0.464
0.608
-2.584
-1.632
-2.28
-4.368
-1.12
-3.176
-4.488
-2.16
-1.968
-0.048
-0.808
-2
1.68
-2.584
0.488
-1.784
-1.704
-1
-0.656
-1.976
-0.088
-1
-0.64
-1
-3.416
1.784
-2
-1.88
-1.288
-2.952
-0.048
-2.856
-3
0.664
-2.136
0.208
-0.688
-2.64
0
-1.264
-2.504
-1.448
-2.8
-0.296
1.088
-1.744
-1.96
-1.32
-1.776
-0.128
-2.984
-0.096
-1.24
-2.872
-1.528
-0.552
-3.088
-1
-1.528
-2.664
0.392
-1.976
-0.44
-1.784
-1.656
1.592
0.504
-0.6
0.696
-2
-1.944
0.96
-2.96
0.824
-3.592
-2.552
0
-3.44
-1
-0.624
-2
0.584
-3.52
-2.136
0.848
-1.672
-0.136
-1.24
-2.848
-1
-2.384
-0.952
2
-3.904
0.808
-0.856
-1.576
-1.24
-2.424
-3.344
0.152
-2.432
0.04
-0.944
-2.304
0.12
-1
-2.6
-0.928
-3.448
-1
-0.44
-4.84
1.976
-2.888
-1.208
-0.544
-2.6
-1.24
-1.408
-3.344
0.608
-2
-0.952
0
-5.168
-0.632
-2.32
-3.64
-1
-0.824
-2.232
0.84
-5.84
-0.032
0.064
-2.776
-0.36
-1
-3
-0.392
-1.352
-1
-1.552
-3.488
0.544
-2.632
-0.64
-1.312
-1
-0.784
-1.168
-1.88
0
-1.096
-1.024
-1
-3.76
-1.336
-0.784
-2.792
-0.624
-3.56
-2.224
-1
-2.488
-2.312
-2.2
-2.944
-1.304
-1.512
-1.96
0.68
-2.776
-3.552
0.92
-1.032
-0.08
-3.488
-2.352
-0.672
-3.184
-1.6
-0.16
-3.584
0
-1.976
-2.24
-1
-2
-3.816
-1.248
-4.4
0.544
-0.208
-1.776
-1.024
-3.96
-1.088
-1
-2.816
-0.768
-3.16
-3.672
-0.248
-1.576
-2.472
-0.44
-1.568
-1
-1.672
-2.848
-1
-3.424
-0.712
-3.192
-1.904
4
-1.952
-3
-1.712
-1.424
-1.24
-1.272
-1.672
-0.384
-2.704
-3.48
0.056
-1.424
-3.496
0.36
-2.16
0.536
-3
-0.728
0.56
-3.84
-0.024
-1
-3.792
0.696
-2.6
0.008
-1
-2.312
-2.392
-0.56
0.024
-1.072
-1.08
-2.264
-0.32
-4.456
-0.776
0.296
-0.128
1.84
-2.968
-3.016
0.872
-4.552
-1.32
-2.584
-1.256
-0.608
-2.648
-1.8
-1
-2.512
-1.088
-1
-3.56
-0.624
-2.792
-1.136
0.664
-4.76
-1.072
0.952
-1.976
0.856
-3.64
-2.336
-2.568
-5
-2.248
-2.28
-3.368
-0.544
-1.496
-0.104
0.2
-3
-0.304
-2.256
-2.208
-0.16
-3
0.128
-0.032
-2.936
-0.24
-1.616
-2.648
-1
-2.184
-1.32
-1.736
-1.584
-1.856
-1.488
-2.68
1.432
-1.688
-1
-3
-2.8
-1.152
-1.312
-2.888
-0.032
-2.92
0.472
-2
-4.264
-1.464
-1.32
-4
1.496
-3.88
-1.416
-1.48
-2.432
-1.848
-1.336
-0.712
0.52
-1.192
-1.568
0.712
-1
2
-1.808
-1.904
-1
-1.424
-1.72
0.152
-3.656
-0.152
-1.136
-1
-1.056
-0.12
-3.12
0.016
-2.44
-0.232
0.08
-2.456
0.472
-1.84
-4.016
-4.832
-5.48
-0.456
-1.8
-0.24
1.112
-1
-1.392
-1
-1.976
-1.608
-1.416
-1.16
1
-2.816
-0.776
0.176
-2.872
-1.68
-1.128
0.936
-1.192
-1.888
0.36
-1
-3.232
-1.52
-1.888
-0.6
-0.448
-3.504
-1
-0.408
-4
-1.688
-0.056
-2.216
-1
-2.12
-2.784
1.88
-1.976
-0.288
-1.76
-2
-0.432
-2.68
-0.624
-1
-3
-2.824
-0.488
-3.104
1.2
-1.352
-2.784
-1.256
-4.584
0.68
-1.112
-3.552
-1.984
-2.84
-2.08
-0.128
-2.648
-2
1
-3.36
-1.472
-1.336
-1.856
-1
-2.88
-1
-2.72
-1.704
-1.752
-3.2
-0.696
-0.52
-2.944
-0.976
-1
0.648
1.456
-1.816
-4.536
-0.44
-2.344
-0.504
-1.576
-2.056
0.44
-3.728
-1.08
-0.672
-3.848
-0.24
-1.384
-1.856
-0.808
-3
-1
-1.048
-4.616
-1.576
-2.424
-1.24
1.424
-1.656
-2.536
1.16
-2.96
-2.112
-0.816
-2.624
-1
-1.28
-1
0.264
-1.136
1.736
-1
-2.984
0.776
-1.792
-1.304
-0.6
-2
-1.296
-0.312
-3.392
-0.24
-0.024
-2.608
-1.832
-3.264
0.36
-1
-2
0.648
-1
-2.76
3.84
-1.968
0.744
-1
-1.84
0.584
-1.976
-1.912
-0.648
-3.2
-1.344
-1.512
-2.176
-1.592
0.56
-2.128
0.472
-2
-1
1.4
-2.856
2.856
-2.928
-1.144
-0.88
-3.496
-1.08
-1.736
-1.936
-1.36
-1.368
-2.28
1
-3.104
-0.6
-0.352
-2.48
0.488
-1.416
-0.68
-2.112
-3.872
-1.952
-1.032
-2.84
-2.872
-1.472
-1.224
-0.272
-2.68
-2.104
1.248
-2.392
-1
-2.32
-1.608
-1
-2
-1
0.2
-2
0.792
-2.056
-2.984
-2.92
-1.824
-1
1.816
-2
0.88
-1.672
-1.752
-1.304
-2.056
-0.52
-1
-1.848
-0.992
-2.152
-1
0.424
-3.712
-1.808
-1.096
-3
1.856
-1.616
-1.288
-0.808
-3.04
-2.576
-0.664
-3.464
1.272
-1
-0.056
0.848
-2.752
-1.016
-0.68
-1.304
1
-1.408
-1.56
-1.12
-4.968
-2
-1
-2.696
-1.4
-2.504
-1.888
-1.624
-2.608
0.68
-1.024
-3.536
-0.416
-1.104
-1.36
1.64
-1.448
-1.296
-1
-1
0.904
-0.984
-2.192
-1
-3.68
-0.624
0.744
-4
-0.76
-1.6
-3.344
-0.512
-2.912
-0.368
-0.44
-2.752
-2.736
-2.648
-1.496
0.64
-2.856
0.048
-0.976
-2
-0.12
-3.496
-4
-2.736
-2.624
0.64
-2
-3
-1
-1.24
-1
-1
-1.304
-1
-0.624
-1
-1
-1.128
-2.016
-0.032
-1.84
-1.512
-1.824
-1.776
0.728
-3.4
-2.632
0.416
-3.072
0.488
-0.88
-0.784
0.656
-2.48
-2.504
-0.8
-1.152
0.208
-1.168
-4.968
-1.04
-0.912
-4.136
1.816
-3.304
-2.12
-1.36
-1.752
-1.424
-1.112
-0.64
-0.864
-1
1
2.56
-1.28
-0.192
-1.576
-2.424
2.712
-1
0.808
0.808
-2.712
-1.192
-1.76
-1
-1.336
-3.616
-1
-0.56
-2
0.272
-2.128
-3.016
1.88
-3
-1.816
-2
-3.736
0.92
-0.976
-1
-0.896
-3.544
1
-1.752
-4.112
-0.688
-2.608
-2.32
0.024
-1.464
-0.92
-0.472
-4.36
-1
-4.448
-1.824
-1.384
-1.92
-1.968
-2.968
-3.808
-2.112
-2.36
-1.208
2
-2.304
-1
-1
-1.448
-0.496
-1.912
-1.184
-0.36
-2
-2
-0.864
-1.496
-0.12
-3
-3.928
2.88
-4.712
-0.6
-0.832
-4.92
0.208
-2.752
-2.72
-0.592
-1
-1.008
0.76
-3.2
1
-1.912
-1.976
-1
-2.68
-1.776
1.808
-0.968
-2.032
-1.76
-2.256
2.472
-1
0.912
-1
-0.368
-0.248
-2.072
-2.536
-1.56
-3.608
-0.624
-0.48
-3.256
-1
-0.304
-2.688
0.832
-3
0.92
-1
-2.136
-0.368
-1.536
-1
-2.016
-1.624
-0.848
-1.584
-2
-0.568
-1.768
-1.664
-0.576
-2.24
-0.232
-2.288
-3.616
1.856
-1
-2.096
-0.192
-3.568
-0.384
-2.04
-3.136
-1.336
-1
-2.432
-0.04
-3.528
-0.304
-1.376
-2.344
-0.84
-1
-4.08
0.456
-2.088
-0.96
-0.984
-3.112
-0.208
-1.544
-0.6
0.752
-3
-2.376
-1.256
-1.44
1.512
-0.856
-0.336
-1.104
-2.68
-1.912
-1.448
-2.648
-0.128
-3
-1
0.016
-2.872
-1.336
-2
-0.416
-1.256
-3.784
-1.704
-0.8
-2.344
-1
-2.088
-3.592
-2
-2.312
-1.736
1.92
-2.664
-1.4
-1.36
-1.904
1.856
-1.928
-2.88
-0.664
-3.352
-1.528
-3.752
-1.36
-0.224
-3.176
-1.512
-0.448
-2.8
0.056
-0.608
-1
-2.208
-2.16
-1.112
-2.128
-4.936
-3.064
-3.68
-1.384
1.944
-2.552
-0.088
-0.68
-3
-0.416
-1
-1.56
-1.76
-2.392
-2.312
0.408
-2.752
-0.2
-3.152
-2.792
-0.056
-3.016
-3.04
1.736
-1.864
-1.368
-0.536
-2.84
-1
-4.872
-1.576
1.472
-3.48
-1.568
-1.384
-2.328
-1.864
-3.24
-1.616
0.712
-3.808
-1.904
-1
-2
-0.192
-3.712
-2.384
-1
-2.424
-1.336
-1.464
-2
-1.48
-1.944
-1
-0.752
-4.016
1
-3.232
-2.264
0.592
-3.824
-1.92
-0.008
-3.776
-1.104
-1.392
-1.4
-0.752
-2.408
-2.688
-2.432
-1.44
-0.024
-1.928
-1.336
0.16
-2.72
-1.728
0.328
-1.824
-1.128
-2
-1
0.968
-2.872
-2.224
1
-2.208
-1.256
-3.48
-2.944
-2.4
-1.552
-2.496
-3.824
-2.184
-0.28
-2.872
-3.208
-0.216
-2.336
-1.76
-1.216
-1.904
-1.072
-0.784
-2.24
-1
-1.784
-1
-1.752
-1
-1
-2.632
-3.016
-1.448
-2.4
-0.944
-1.304
-1.72
-0.792
-3
-2.552
0.616
-5.92
1.776
0.32
-4.616
0
-0.328
-1.088
-0.68
-1.632
-1.416
0.856
-3.048
-0.56
-2.784
-1.656
0.816
-3
-0.2
0.392
-3.48
-0.056
-3.984
-2
-0.088
-2.592
-1
-1.232
-0.12
0.016
-1.624
-1
-1
-2.52
-0.432
-0.384
-1.656
1.56
-2.76
-2.424
-1.144
-3.808
-1.952
-3
-3
0.808
-3.568
0.848
1.76
-3.424
-0.344
-3.232
-2
-0.08
-1
-0.728
0.368
-3
-1
1.84
-2
-1.136
-4.648
-2.84
-0.008
-2.888
-1.208
-1.848
-3
-1
-0.112
-0.344
-1.608
-2.12
1.048
-0.32
-1.584
0.368
-1.96
-1.728
-1.448
-4.472
-1
-1.24
-1.872
2.952
-1.936
-1
-0.84
-5.168
-1.024
-3.088
-1.704
-0.6
-3.656
-1.496
-1.368
-2.592
0.64
1.752
-0.472
1.136
-1
0.12
-1.144
-3.904
-1
-0.712
-3
2.328
-2.136
-1.264
0
-2
0.592
-1.544
-3.008
-0.552
-2.4
-2.944
0.088
-4.232
-0.792
-1.64
-3.552
2.616
-3.016
-0.128
-0.84
-2.256
0.768
-1
-4.456
-1.36
-3.368
-0.248
-1.216
-1
0.88
0.432
-2.312
-0.296
-1.744
-0.6
0.696
-2.688
-0.888
-2
-2.04
-1.088
-5.32
-2.184
-0.768
-3
-0.984
-2.12
-2.848
-0.056
-3
-1.432
1.08
-2.664
0.424
-2.24
-2.848
1.712
-1.904
0
-2
-4
-1
-1.568
-1
1
-1.576
-2.344
0.152
-2.136
0.04
-5.944
-2.728
-0.624
-2
-0.6
-0.464
-2.816
-0.864
-1.352
-1.92
-0.992
-1.776
0.792
-0.544
-2
-2.752
-3.408
-3
-1
-3.24
-2.952
-2.392
-2.832
0.264
-1.32
-3.912
0.552
-3
-0.128
0.92
-4.872
-1
-1.936
-4.888
-1.84
-1.792
-2
-1.392
-2
-1.4
-2.76
-1.992
-1
-2.408
-2.92
0.44
-2.208
0.568
-2
-2.52
0
-3.952
0.88
-1.712
-3.76
-0.168
-3.568
-1.528
0.064
-1.64
-2.224
0.824
-3.008
-0.104
-2.2
-0.24
0.392
-2.768
-2.96
0.52
-1
-1.128
-1
-2.096
-2
-3.744
-0.824
-0.776
-2.272
1.72
-2.896
0.752
-0.608
-1
-0.56
-1
-1.656
-1.704
-3.248
-1.2
0.392
-2.104
0.056
-1
-3.04
-0.264
-1.592
-1.184
-1.536
-3.72
-0.984
-0.624
-2.696
-0.472
-2.44
-1.408
0.616
-3
0.288
-1.96
-2.808
-1.288
-1.096
-1
1
-3.808
0.712
-1.712
-1.384
-1.76
-4.56
-0.336
-1.616
-2.432
-1.96
-2.416
-2.576
-1.624
-1.344
-4.04
-1.696
-2.632
-1.864
-1.44
-2.84
-1.024
-1.832
-1
-0.304
-5
-1.752
-2.112
-3.032
-1.392
-1.68
-0.928
-0.392
-3.584
-3.16
0.08
-1.184
-1
-2.88
-1.744
-1.32
-2.968
-1
-1.936
-2.224
-0.32
-4.544
-2.28
-1
-3.648
-1
-1
-1
0.192
-2.816
-1.36
-1.312
-5.472
-1.136
-2.168
-1.88
-0.36
-3.024
-1.144
-1.928
-3.64
0.824
-0.568
-2.792
0
-2.84
-3.408
-0.088
-2.992
-0.656
-0.6
-2.296
-0.304
-1.768
-3.168
-0.8
-4.664
-1.064
-1.048
-3.064
-1.08
-2.488
-2.352
-0.328
-3.728
-1.28
1.736
-2.248
-1.464
-2.464
-0.12
-0.216
-3
-1.704
-1.248
-4.2
1
-2.52
-1
-1.032
-4.84
-1
-1.864
-3.448
-0.696
-4.16
-3
-0.624
-0.424
0.056
-0.92
-3.272
-1.08
-3.336
-1.712
-1.2
-3.616
-1
-2.808
-1.144
0
-1.952
-1.096
-1.144
-3.616
1.04
-1.424
-1.664
-1
-1.568
-1.92
-0.472
-2.424
-2.496
-1
-1.88
-1.464
-2.632
-3.728
0.824
-1.96
-0.056
-1.888
-2.896
-1.456
-1.8
-1.744
-1.704
-3.656
-0.568
0.32
-1.488
-1
-2.416
-4.264
-0.68
-4.456
-1.776
-0.528
-1.488
0.92
-1.032
-2.048
1.808
-2.552
-1.32
-1.208
-3.744
-1.304
-3.648
-2.2
-0.76
-1.496
-2.632
-3.408
-2.64
-0.376
-2.792
-2.216
-2
-1.36
-2.856
-1.096
-2.952
-0.072
-1.52
-1.672
-0.784
-2.472
-1.312
-2.92
-2
-1
-2.992
-3
-1.4
-1
-2.088
-1.256
-2.584
-1.52
-1.224
-2.744
-0.016
-1
-1.16
-1.744
-0.648
-1.448
-1.456
-1.64
0.368
-4.168
-0.928
-0.952
-3.68
0.176
-2.032
-2.408
-0.248
-2.6
-2.544
0.48
-2.832
-1.008
-2.92
-2.824
0.728
-4.448
0.304
-1.16
-2.344
2.12
-1.728
-2.416
-1
-3.16
-0.696
-0.68
-2.424
-2
-1.576
-1.568
1.712
-3
-1
0.952
-0.904
2.424
-2.616
0.8
-0.288
-1.336
-1.384
-1
-1.04
-0.112
-1.848
-4.12
-1.328
-3.56
-0.304
-2.184
-2.592
-1
-1.04
-1
0.776
-2
-1.848
0.6
-3
-1.592
-1.624
-2.784
-0.12
-4.024
-3.752
-1
-2
-2.36
-1.544
-1
-1
-0.256
-1.92
1.872
-2.968
-1.192
0.112
-1.16
-1.208
-1.744
-0.608
-0.296
-3.2
-0.344
-1
-3.088
-1
-4
-1
2.68
-2.784
0.168
0.76
-2.856
2.88
-1.88
-1.216
2.52
-1.168
-1.216
-1.736
-2.312
-1.08
-1.592
-0.368
1.016
-2.656
-0.8
-0.352
-0.392
0.488
-3
-1.84
0.552
-0.936
-0.984
-1.968
-1
0.616
-3.472
-2.224
0.456
-0.36
-0.472
-1.752
0.072
-0.512
-1.88
-1.608
1.656
-1.888
0.248
0.6
-2.696
-1.104
-1.056
-2.976
1.88
-3.56
-0.272
-1.264
-1.768
-0.28
0.312
-1.128
0.576
-0.056
-1.56
0.136
-3.616
-1
-2.288
-1.04
0.232
-4.712
-3
-0.048
-3
0.904
-0.904
-1.288
-1.192
-2.52
-1.864
-2.328
-1.616
-1
-0.52
-1.056
-0.424
-1.752
-0.688
-0.56
-3.768
-1.632
-2.136
-2.648
1.84
-3.968
-2.056
-0.896
-1
-0.8
-1.76
-2.592
-0.688
-2.824
-3.32
-0.488
-3.072
0.248
0.424
-1
0
-1.448
-1.648
-1
-1
-0.032
0.984
-1
-1.112
-2.68
-2.208
-0.488
-1.392
-1
-1.4
-2.448
1
-2.088
-1.96
-0.72
-1.312
-2.68
0.568
-2.496
-1
-1.216
-2.904
-1
-3.784
-3
-0.832
-2.216
1.208
-0.376
-3.08
1.776
-4
-0.504
0.656
-1
-1
-2.608
-2.232
-2.208
-2.32
1
-1.32
-2.968
-0.064
-1.76
-2.256
-1.176
-1.776
-0.272
-1.68
-3.104
-0.664
-3.68
-1.488
1
-1.216
-2.312
-0.184
-2
-1
-1.848
-1.792
-1.056
-1.024
-1.04
1.648
-4.456
-1.368
-0.304
-1.56
0
-2.248
-3.424
1.36
-3
-0.272
1.08
-2.32
0.848
-1.24
0
-0.288
-0.096
0.144
0
-1.096
-1.096
-3.28
-1.808
-0.52
-0.424
-1.672
-2.848
-1.296
-0.52
-1.472
0.696
-0.376
-3.344
0
0.304
-4.08
-0.272
-1.912
-1.88
-0.992
-0.776
-2.208
-3.088
-1.2
-1
-2.928
-1.344
0.216
-1.12
-1.464
0.608
-1.584
0.264
-0.28
-1.912
-0.448
-0.824
-1
-1
-4.872
-1.032
-0.744
-1.112
1.2
-1.792
-1.256
-1.392
-3.296
-0.2
-0.656
-1.992
-1.368
-2.224
-2.92
0.44
-0.472
-0.568
-1.336
-2.52
4.496
-0.976
-2.024
1.856
-2.76
-1.504
-1
-1.528
1.312
-2.28
0.368
-1.544
-1
-0.104
-1.8
-1.352
0.48
-3.232
-1
1.36
-2.888
0.192
0.952
-2.968
1
-1.36
-0.352
1
-0.184
2.4
-2.264
-2
0
-1
-2.24
0.824
-3.28
-1
-1.496
-3.2
-0.152
-2.792
-1.944
-0.016
-1
-3.176
-3.32
-3.816
-1.464
-1.88
-1.016
0.248
-2.728
-0.416
0.6
-2.136
-1
-3.672
-1.136
0.52
-1.384
-2.424
-1.096
-1.904
-1
0
-2
-1
-0.808
-2.24
-1
-1.672
0.464
-2.84
-2.44
-1.528
-4.576
-1.624
-0.64
-1.16
-2.536
0.632
-0.592
-0.912
-1.96
-0.016
-1
-4
-0.456
-3.4
-1.496
0.408
-2.968
-1.568
-0.24
-0.976
-1.072
-1.832
-2.264
-0.32
-1.816
-1.88
0.648
-3
-2.68
0.808
-1.952
2.744
-1.552
-2.16
-1
-2.744
-0.216
-3.536
-1
-0.792
-3.016
-0.632
-2
-1.36
-3.064
-0.32
-3.352
0.832
-1.48
-0.856
-1.072
-2.976
1.64
-3.4
-3
0
-2.68
0.752
-1
-1.592
-1.456
-1.976
-1.896
-0.4
-2.408
-2.784
-0.768
-3.208
-0.84
-1.448
-3.808
2.936
0
-3
-1
-2.824
-3.448
-1
-2
-0.472
-3.168
-1.856
-1
-2.32
-0.216
-2.032
-3.112
-2
-1.2
-1.696
-1
-3.888
-1
-1.08
-1
-1.272
-2.264
-2
-1.56
-2.672
-0.256
-0.152
-3.472
-2.12
-1.432
-2.464
0
-4
-2.8
1.232
-1
0.808
0.712
-3
-0.048
-2.712
-1.288
-1.192
-4.28
0.136
-1.664
-2.384
0.136
-2.12
0.832
-1.424
-2.624
0.328
0.44
-1.768
1
-1
-2.648
1.84
-1.992
1.776
-1
-3
-1
-3.008
-2.296
0.656
-3
-0.76
-0.024
-2.072
-2.168
-0.736
-0.68
0.912
-1.448
-1.176
-2.128
-5.44
0.936
-2.936
-3
2
-1
-0.624
-2.488
-3.392
-0.352
-1
-0.448
0.008
-3.456
-2.184
0.28
-2
-0.944
0.136
-0.328
0.64
-3.928
-0.952
0.976
-2.072
-0.36
-2.328
-2.784
-1.528
-3.44
-1.44
-1.592
-2.912
-1.504
-1.448
-0.6
-0.352
-0.216
-1.232
-0.416
-2.16
1
-1.192
0
0.872
-2.76
-1
1.12
-3.88
-1
-1.04
-0.368
-1.584
-1.072
-0.024
-0.76
-2.608
0.032
-1.592
-2.504
-0.2
-2.304
-0.792
-1.168
-3.96
-0.2
-1.824
-2.864
-1
-2.84
-2.72
-1
-2
0.152
-0.056
-3.48
-2.136
-3.768
-2.32
-0.576
-1.24
-2.424
-1.144
-2.904
-0.048
-4
-1.192
-2.808
-4.424
-1.576
-0.52
-4.424
-2.008
-3.312
-1.864
0.56
-0.528
-3.728
-0.504
-1.672
-0.44
-1.696
-2.632
-0.272
-2
-2.84
-1
-4.888
-1.104
-3.544
-2.6
-0.496
-2.408
0.312
-0.824
-1
0.048
-1.928
-2.752
-2.264
-1.64
-3.184
-1
-4.472
-1.128
-1.24
-3.904
-1.048
-1.936
-2.112
-1.84
-4.376
-0.28
-2.784
-1.056
-1
-2.656
-1.976
-0.28
-3
-1.64
-1
-1.736
0.352
-2.168
-3.28
3.496
-2.904
-1
-1.784
-2.12
-1.168
-3
-1.792
-0.376
-2
-0.592
-0.72
-2.496
-0.208
-0.2
-2.296
-0.608
-1
1
-1.16
-2.888
-1.064
-0.984
1.84
-0.16
-2.488
-0.352
-1.328
-2
0.04
-2.896
0.92
0
-3
-1
-1.176
-1.968
1.408
-1.496
-0.8
-1.304
-1
-1.832
-2.016
-4.88
-1
-0.592
-0.736
0.768
-2.44
-1.672
-2.248
-3.424
1.056
-1
-1.568
-0.232
-2.344
-1.712
-1.96
-4.232
-0.144
-2
-2.856
5
-2.904
-0.288
-2.712
-2.384
-1
-1.712
-2.664
-1
-2.568
-1.92
0.168
-3.576
-0.624
-2.984
-1
-1
0.184
-1.864
0.824
-2.88
-1.024
-2
-3.208
-1.304
-4
1.008
-0.704
-2.344
-0.176
-2.12
-1.464
0.072
-2.416
-1.424
-0.64
-2.456
-2.552
-1.176
-1.872
0.08
-1.064
-1.032
-0.936
-1.664
1.36
-0.792
-2.744
-1.304
-2.296
-0.8
-0.104
-3.496
-1
0.368
-1.56
0.376
-2.472
-2.92
-1.168
-2.76
0.856
-2.048
-3.928
0.928
-2.52
1.16
1.216
-2
0.128
-1.56
-3.632
-1.456
-2.488
-0.552
-7.28E-12
-3.592
-1.088
-0.256
-2.584
1.84
-1.224
-0.744
0.968
-2.904
2.52
-1.744
-2.352
0.552
-2.456
-1.64
-0.264
-3
-0.928
-2.464
-2.12
-1.176
-0.688
-2.224
-1.24
-3.4
-1
-1.208
-0.944
-1.024
-1
-2.088
-0.272
-1.816
-0.16
-1
-0.328
0.752
-1.576
-0.472
0.04
-1.864
0
-1.672
-3.424
-2.52
-2.808
-2.712
0.808
-2.904
-2
-1.856
-1.808
1.28
-3.424
-1.96
-1.712
-2.336
-0.536
-0.704
-1.44
-0.056
-1.848
-2.872
-0.656
-3.28
-1.072
-1.552
-1.728
-1.088
-1.08
-4.992
1
-2.688
-0.456
-0.6
-1
-0.296
-1.656
-1.392
0.12
-3.024
-1.144
0.752
-2
1.68
-2.456
-1.328
-0.352
-2.616
-1
-1.096
-4.968
-1.064
-1.552
-1.16
-1.624
-2.488
-0.608
-0.648
-1
2
-2.504
-1.544
-1
-1.64
-1.752
0.472
-2.568
0.664
-1.12
-0.856
0.904
-1.976
-0.216
-0.76
-4.328
0.568
-1.944
0.064
-0.28
-1.592
-2.368
-1
-1.448
1.8
-2.056
-1.392
-1.28
-1.208
-0.36
-1.112
-0.872
-1
-1.936
-1.92
3
-2.824
0.328
-1.912
0
-1.736
-0.168
-1
-1
-2.88
-2.824
0.592
-2.408
0.496
0.2
-3.544
-1.312
-4.832
-1
0.96
-1
-1.864
-1.448
-3.232
-1
-1
-2.128
0.272
-2.944
-2.04
-1.864
-1.232
-1
-2.424
-1.04
-0.768
-0.856
-1
-1.048
-1
0.808
-1.712
-1.144
-1
-1.76
0
-1
-1
0.296
-0.56
0.416
-0.848
-4.248
0.344
-1.28
-1.536
-1.368
-3.592
-1
-1.12
-1.992
-1.168
-0.48
-1
-1
-2.504
1.224
-0.28
-3.216
-0.56
-0.536
-3.072
0.168
-2.632
-2.36
-1.544
-3.328
-1.176
-1.384
-1.52
-1.064
-2.936
0.616
-1
-3.84
-2
-0.976
-3.912
-1.648
-2.2
-0.24
-2
-4.544
0
-0.08
-1.688
-0.264
-2.216
-1.168
-2
-2.856
-0.024
-1.952
-0.072
0.76
-1.496
0.136
-1
-4.376
-1.92
-2.184
-2.824
0.496
-2.448
-0.6
1.592
-2
-1
-1.208
-2.2
-1
-1.936
-1.984
-1.032
-3.84
-2.256
-0.352
-3.88
-0.728
-0.68
-4
-2.168
-1.464
-0.048
-0.76
-3.432
0.312
-0.888
-2.008
-2.2
-4.848
-1
-1.112
-1.992
0.92
-1.912
-1.272
-1.816
-1.768
-1.12
-1
-0.504
-1.424
-1.64
-2.04
-0.296
-1
-1.992
-0.152
-3.04
-1
-2.144
-0.904
-1.048
-4
-1.096
-0.808
-1.144
-1
-0.8
-1.152
-0.992
-2.232
-1
-1
-3.112
-1.848
-2.128
-2.688
-1
-1.768
-1
-2
-4.648
0.96
-0.976
-1.224
-1.896
-3.24
-0.8
-2.504
-1.592
-0.032
-1.864
-0.88
-1
-2.392
-1.336
-1.104
-2.04
0.728
-1.672
-0.648
-1.512
-4.76
-1
0.968
-3.936
-2
-1.16
-1.624
0.976
-3.48
-0.76
-1.8
-2.896
-1.496
-3.28
-2.184
-1.44
-1.936
-1.208
-1.648
-1
0.64
-0.928
-3.904
-0.024
-2.856
-1.12
-1
-4.352
-0.264
0.248
-0.36
-1
-2.088
-0.016
-1.896
-1.8
-2.592
-2.52
-2
-1
-1.84
-0.224
-1.064
-2.92
-2
-1.76
-1
-1.352
-2.552
-3
-1.36
-2.264
-1.248
-2.072
-2.536
0.12
-1.608
-2.968
-1.704
-1.496
-1
-0.456
-1.792
-1.112
-2.016
-1.16
2.648
-3.728
-0.632
-0.536
-2.28
0.344
-2.872
-2.424
-0.056
-2
-0.568
-2.152
-3
-2.136
-4.24
-2.232
-1.144
-3.904
-1.856
-1
-2.904
1.712
-2.28
-0.768
-0.76
-1.712
0.328
0.152
-3
-1
-2.888
-2.728
-0.88
-3.344
-1
-1.464
-3.448
-0.136
-2.264
-3.84
-0.016
-3
-0.312
-1.544
-2.2
-1
-2.408
-1.688
-1.608
-3.56
-1.44
-1.784
-2.752
-0.896
-2.28
-0.912
1.328
-5.296
-1.128
-0.16
-4.904
2.856
-3.744
-3.888
-1.84
-2.752
-1.024
-1.696
-3.592
-2
-2.104
-1.992
-1
-0.592
-1.64
-1.872
-1
-1.352
-1.504
-4.52
-2
-2.976
0.904
0.072
-4.16
-2
-1.784
-2.736
-0.248
-0.56
-1.632
0.368
-2.496
0
-1.6
-3.296
-0.088
-1.256
-2.752
0.2
-1
-2.68
-0.08
-3.904
-1.24
-2.488
-2.528
-0.104
-2.456
0.44
-1.264
-1.584
-3
-2.488
-3
0.216
-1.968
-0.408
-1.744
-2.4
-0.304
-1.208
-1.944
0.984
-3.88
-0.352
1.136
-1.816
-0.232
-1.88
-2.984
-2.248
-1.576
-1
-2.44
-1.432
-1
-2.664
-2.288
-3.28
-0.576
-2.712
0.712
-0.904
0
-2.856
-1.096
0.712
-0.616
-2.52
-1
-2.672
0.616
-1.568
-1.52
0.056
-2.848
-1.248
-2
-2.28
-1.768
-2.184
-3.592
0.824
1.8
-2.984
0.944
-2.792
-0.608
0.6
-1.744
0.704
-0.968
0.648
-1.12
-3
-1.216
-0.832
-3.896
1.68
-3.456
-3.328
-1.528
-1
0.92
-2.096
-2.968
1.808
-2.552
-0.32
1.584
-0.232
-0.912
-1.944
-2.4
1.552
-3.016
-3.176
0.184
-3.36
-1.064
1.208
-2.136
0.664
-3.64
-1.712
1.928
-2.952
-1.072
-1
-1
1.352
-2.472
-0.624
0.64
-2
-2.368
-0.496
-1.552
-1.2
-1
-2.088
-0.512
-2.792
-1.68
-0.448
-3.744
-0.032
-2.064
-2.84
0.744
-2.12
-0.12
-0.728
-3.04
1.16
-0.752
-1.464
-1.512
-1.44
-1.648
0.312
-3.408
-0.248
-0.8
-3.088
-0.208
-2
-1.976
0.88
-2.912
-0.544
-1.264
-2.072
-0.28
-1.688
-2.128
-0.152
-3.528
0.48
-1
-2.848
1
-2.288
-2.52
-1.384
-0.856
0.096
-3.048
-1
0.856
-1.808
-1.288
-1
-2.28
-1.288
-0.336
-1
-2
-0.6
-1.112
-0.696
-1.752
-1
0.16
-2.536
0.632
-3
-1.088
1.8
-1
-1.336
-0.104
-2.848
-1.4
-2.76
-1.888
-1
-1
-1.32
-2.512
-2.536
0.584
-1.368
-5.36
1.096
-1
0.824
4.232
-1.16
-0.968
0.968
-2.192
-1
-1.84
0.376
-1.744
-1.696
0.888
-3.2
-2.448
0.512
-3
-1
-1
-2.376
1
0.352
-3.496
0.76
-1.144
1.952
1.024
-1
0.64
-2.992
-2.432
1.944
-0.064
-0.52
0.592
-2
-1.504
-2.344
-1
0.944
-1.608
-3.488
-0.248
-2.84
-0.44
-0.128
-2.936
2.776
-0.84
-1.384
-1
-4.104
-0.088
-1
-2.736
0.752
0.856
-2.048
-1
-2.216
-2.656
-1.296
-1.504
-1
-2.848
-2.792
0.888
-1.008
-0.12
-2.56
-3
1.896
-0.768
-2
1
-2.248
-1.424
-2.584
0.44
0.432
-2
-1.648
0.424
-3
-1.616
0.28
-2.808
1.952
-3
-2.952
-1
-0.712
0.232
0.76
-4.288
-2.344
-2.08
-0.432
0.04
-1.472
-0.576
-0.376
-2
0.84
1.84
-3.264
-0.136
-1
-2
1.984
-0.888
0.688
-2
-3.8
-0.992
-2.408
-1.72
-1
-4.24
-2.952
-2.464
-1.584
-1.632
-2.36
-2
-1.224
-3.648
-2
-2.08
-2.872
-1.032
-1.936
-1.448
-0.16
-1.584
-0.28
-2
-3.648
1.8
-1.208
0.008
-0.368
-4
1
-0.248
-1.736
1.352
-1.504
-1.76
-0.144
-2.976
-1.072
-0.856
-4.52
0
-4.488
-1.792
0.376
-1.64
-1.224
-1.544
-1
-1.104
-1
-3.592
0.088
-1
-1.792
-1.16
-1
-2.872
-1.064
-2.968
0.84
-1
-1.352
-1
-2.184
-0.32
-1.264
-2.248
0
-2.976
-2
0.04
-1.656
-0.296
-1.496
-2
3.24
-2.792
-1
0.968
-1.08
1.648
-1.592
-4.264
-0.232
-1.6
-1.984
-2.248
-1
-1.056
0.04
-2.272
-1
-2
-1.848
-1
-3.424
1.712
-1.288
-2.856
2
-2.808
-1.384
2.712
-0.616
0.04
-1.848
-1
-0.232
-0.136
-0.96
0
-3.304
0.504
-1.656
-1
-0.536
-1.368
-2.184
0.648
-1.84
1.96
-1
-1
-0.152
-2.6
-0.496
1.296
-1.656
-1.568
0.32
-2.536
-0.608
0.752
-1.264
-1
-1.728
-0.552
-0.352
-3.616
-2
-1.096
0.968
0.744
-0.552
0
0.208
-2.744
0.088
-1.352
-1.8
2.552
-2.016
-1.72
0.776
-1.64
-0.064
-1
-1.784
-0.168
-2.24
-0.928
1.856
-4.904
-1.144
0
-1.168
0.92
-1.736
-1.248
1
-2.184
-0.824
-1
0.448
0.4
-2.056
-0.784
1.464
-1.96
0.68
1.216
-2
2
-1
-2.08
0
-1.824
-0.448
-1.64
-2.64
-1.368
-1.672
-0.464
1.512
-0.88
-0.824
-2.344
-2.296
0
-1.2
-1.544
-2.792
-1.944
0.016
-1.04
-1.912
-1
-0.632
-0.232
0.16
-0.016
1.12
0.272
-3.472
1.44
-1.432
-1.232
-1.352
-1.864
-1.52
-1.768
-2.712
-0.808
-1.144
-2
-1.096
-2.52
0.424
-1.424
-2.04
-0.152
-0.984
-0.152
-0.432
-1.52
-0.584
-0.848
-2.376
-0.656
0.44
-0.304
-0.368
-2.136
-0.088
2.76
-3.976
-2
-2.584
-0.544
3.2
-2.504
-1.296
-1
-1.216
-0.76
-1.512
-2.68
-0.584
-1.368
-2.36
0.184
-2.776
1.352
-1
-3.76
0.936
-2.968
-4
1
-2.68
0.376
-0.488
-3.784
0.24
-2.2
-0.792
1.48
-3
1
-0.36
-3.064
-0.944
-1.216
-2.496
-1.12
-1.144
-0.976
-1.024
-2.928
-0.36
-2.328
-2.216
0.208
-3.064
-0.36
0.408
-2.544
-0.512
0.104
-2.6
-1
-2.912
-2.232
1.96
-1
-0.776
-1.256
-1.984
3.808
-1.08
-1.128
1
-2.552
-0.36
-1.04
-2
-1
-2.608
-1
-0.32
-2
-1.28
0.112
-3.504
1.4
-1.304
-2.584
-1
-2.976
-1.08
-0.648
-3
0.632
-1.768
-4
-0.344
-1.624
-0.272
-2.112
-2.08
-0.432
-2.616
-2.992
-0.288
-1.48
0
-1.432
-1.712
0.048
-1
-1.048
0.712
-2.712
-1.384
0.24
-1.712
0.32
-1
-3.296
0.04
-1.36
-1.304
0.12
-4
-0.56
-1.696
-2.632
-1.272
-3.176
-3.88
0.984
-3.832
-3.104
-1.392
-2.6
2.76
-1.704
0.656
-1
-2.56
0.56
0.144
-2.584
-0.264
-1.64
-0.728
1.328
-2.176
0.872
0.76
-1.968
1.936
-1.616
-2.336
0.52
-1.792
1.232
-3.088
-0.704
-1.6
-0.76
-1.976
-1.456
-1.592
-2.92
-1
-1.528
-0.784
-2
-0.12
0.928
-2.952
-4
-1.072
-2.76
0.496
-2.568
-1.792
-1.312
-1.64
-1.04
-0.72
-3.008
0.552
-3.8
-0.944
-1.912
-2.256
0.208
0.52
-2.44
-2.744
-3.016
-3.904
1.68
-2.128
-0.704
-2.552
-3.64
0.04
-2.424
-2.416
-1.536
-3.464
-2.68
0.824
-3.344
-0.296
0.008
-1.6
0.392
-2.208
-2.888
-0.008
-2.92
-1.352
-0.864
-1.184
-0.232
-2.88
-1.984
-0.624
-2
-1
0.08
-2.136
1.616
-1.008
-0.424
-1.24
-2
1.856
-2.096
-1.952
1
-3.76
0.616
-1.432
-3.232
-1.48
-1.424
-3
-2.536
-3.136
-2.4
0.584
-2.848
-0.376
0.016
-3.72
-0.232
-0.816
-1.864
-0.176
-3
0.976
-1.944
-4.584
0.24
-4.2
-1.248
-1
-1
-2.176
1.32
-2.952
0.072
-1.416
-2.264
1.68
-1.544
-1
-0.352
-1.616
-1.76
-1.968
-2.016
-1
-4.552
-1.48
-0.792
-2.488
0.088
-2.296
-3.4
-1.104
0.488
-1.088
-0.408
-1.72
-1
-1.528
-4.136
-1
-4.88
-3
-3
-4.856
0.712
-1
-1.168
-2.432
-3.208
0.376
-1
-2.592
-2.736
-2.48
-2.552
-1
-3.352
-2.392
-1.768
-3.584
-1.52
-1.112
-4.744
1.92
-2.872
-1
-0.744
-1.472
-1.224
-1
-1.68
-1.368
-2
-2.392
0.536
-1
0.176
0.312
-3.112
-0.504
0.2
-2.696
-1.208
-2.888
-0.016
-1.92
-3.824
0.456
-1.816
-1.464
-1
-2.672
-3.752
-1.152
-1.944
-1
-2.296
-2.08
-0.328
-1.288
-0.52
-1.576
-3.712
1.712
-1.952
-1
-1.952
-3.616
-2
-1.808
-2.52
0.272
-1.656
-3
-1
-2.56
-1.472
-1
-4
-1
-2.4
-5.072
0.264
-1.592
-1
0.84
-3.976
-0.224
-4.792
-1.304
-0.6
-2.752
-0.48
-1.936
-1.568
0.68
-2.024
-1
-1
-1.632
-1
0.184
-1.328
-0.176
-2.128
-2.68
-0.032
-2.984
-1.192
-1
-2.16
-0.584
-2.208
-3
-1
-1
-1.344
1
-1
-2.184
0.2
-3.816
-0.792
-3.784
-1.496
-1.12
-0.784
-1
-0.952
-5.784
-0.24
-2.664
-1.864
-1
-1
-0.36
-0.776
-1.368
-0.504
-0.344
-1.6
0.944
-2.304
-2.488
-1.624
-1
-1.888
-2.872
-2.904
0
-1
-0.128
-0.648
-3.328
-1.544
-2.72
-2.104
-1
-2.608
0.464
-2.32
-2.216
-1
-1.592
-2.008
1
-1.544
-1.896
-0.224
-1.984
-1.08
-0.824
-1
2.08
-1.768
-1.56
-1.672
-4.248
-2.424
-3.112
-3.6
0.136
-2.232
0.336
1.984
-4.8
0.616
0.568
0.192
0.856
-1
-0.144
-0.904
-3.568
-0.192
-2.04
-2
-1
-1.08
-2.024
-2.04
-2.416
0.848
-2.128
-1
0.44
-4.536
-3.896
0.184
-1.912
-0.04
-1
-0.112
0.792
-0.696
-2.2
-1
-2.408
-0.032
-1
-2.2
-0.024
-1.248
-1.752
0.896
-3.36
-0.64
-1.448
-2.472
0.744
-1
-2.936
-1
-1.936
-1
-0.68
-2
-0.512
-2
-1.704
0.8
-3.104
-2.488
0.72
-0.776
-0.36
-3
-1.528
-1.432
-4.664
-1.88
1.568
-3.88
1.784
-0.928
-0.36
0
-1.784
-3
-0.688
0.28
-0.408
-1.632
-0.504
0.552
-2
-2.296
-3
-2.744
-1
-1.48
-2.888
-1.128
-3
-1.128
-1
-5.36
0.944
-1.88
-2
-1
-2.896
-0.248
-1
-3.048
-1.24
-1.136
-1.936
-1.704
-2.248
-1
2.24
-1
1
-0.048
-2.04
-1.088
-2.592
-3.368
-1
-4.44
-1
-2.368
-2.576
-0.056
-1.4
-2.704
-0.92
-1.992
-1
-0.92
-1.232
-1.144
-2.192
-1.856
-2
-1
-1
-1
-4.192
-1
-1.848
-1.68
-0.616
-1
0.04
-2.472
-1.576
-1
-1.328
-3.16
0.536
-1.632
-2.592
-0.088
-3.96
-1.016
-1.944
-1
2.392
-5
0.008
-0.408
-5
-0.392
-1.8
-1.976
-1.536
-3
-0.264
-1
-2.456
1.104
-1.352
-2.616
2.6
-4.968
-1
-1.936
-1
1.52
-1.96
-2.256
0.696
-2.296
-0.8
-2.104
-2.504
0.912
-1.04
-4.56
0.064
-1.736
-0.784
-3.168
-1.88
0.856
-2.096
-1.024
-1.144
-2.52
-0.672
-1.568
-3.472
0.376
-1.2
-2.816
-1.456
-1
-1.552
-0.4
-3.944
-0.088
-1
-2.168
-0.8
-1
-1
-1.032
-2
-3.08
-2.36
-1.824
-0.552
-1
-1.96
-0.264
-2.584
0.144
-2.464
-0.44
-0.784
-2.312
-2.112
0.256
-2.6
-2.848
-1.208
-1.944
-1.016
-2.92
-1
-1
-2
-0.928
-1.72
-1
-1
-2.576
-1.944
0.56
-2.432
-1.616
-2.344
-2.424
-1.24
-1.192
-2.568
0.808
-5.76
0
-0.952
-3.616
1.848
-2.616
-0.24
0.152
-2.328
-1.768
-0.568
-3.92
2
-1.848
-0.872
-1
-3.88
-1
-3
-1.136
-0.088
-3.12
-1.992
-1
-3.688
-0.608
-0.4
-3
-0.888
-1.968
-2.784
-1
-3.976
-2.464
-1.832
-3.632
0.64
-1.272
-3.88
0.648
-2.744
-1.76
-2.096
-2.952
2.68
-0.776
-2.32
-1.416
-2.232
-0.824
-1.592
-1.8
0.552
-0.512
-2.368
-1
-4.36
-0.688
-1
-3
-1.496
1.16
-4.568
-0.072
-3.856
-1.288
-2.76
-2.664
-2.432
-1.208
-2.248
2.28
0.224
-1.28
0.512
-3.656
0
-3
-1.696
-1
-0.832
1
-1.224
-2
0.968
1.032
-3.84
0
-2.824
-4
-1.728
-3.04
0.528
-1.088
-3.856
-1
-2.88
-2.216
1.312
-2
-0.248
-1.2
-4.24
-0.208
-2
-0.984
0.04
-4.824
-1.408
-2.632
-2
-0.4
-2.344
-1.624
0.696
-4.416
-1.52
0.136
-2
0.992
-0.728
-2.28
-1.384
0.712
-1.904
-2.048
-4
0.856
-3.904
-2.856
1
-4.28
-0.728
-1.328
-1.384
-1
-2.56
-0.584
-1.576
-2.128
-2.328
-1.56
-2.304
-1
-2.408
-1
-1
-3.976
-1
-0.688
-3.696
-0.2
-1.752
-1.888
1.656
-1.392
-2.44
-1.024
-2
-1.168
-2.104
-3.72
0.456
-1.448
-0.824
-0.128
-3.08
-3
-1
-3.936
-0.224
-4.52
-0.664
-0.744
-5.088
-1.648
-2.2
-1.792
-2.992
-3.088
-1
0.84
-2.688
-1.736
-2.648
-2.496
-1
-2.928
0.048
-1.976
-4.784
-1.24
-3.496
-2.432
-1
-1.688
-1.08
-1
-2.912
-1
-1.896
-3.2
-1
-2.216
-1.744
1.376
-3.2
0.776
-1.128
-2.984
-0.096
-2.68
-3.128
-1.824
-3.552
-1.088
-2.36
-1
-1.416
-1.144
-3.56
-1.88
-1.784
0.032
-1
-3.256
1.2
-4.848
-3.688
-1.112
-3.984
0.84
-1.912
-1.864
2.264
-3.072
-1.72
-1.016
-2.248
-0.848
-2.056
-1.04
-0.432
-2.536
-3.984
-1.576
-2.52
-2.848
-1.144
-4.232
-1
1
-1.048
2.616
-2.992
-0.768
-1.52
-2.576
-1.336
-2.696
-3.16
-1
-1
-1.728
-2.504
-3.688
0.28
-2.464
-3.896
0.592
-1.912
-1.96
-0.992
-2
0.48
-2.696
-3
-1.752
-2.52
0.312
-1
-3.56
-0.512
-2.536
-1.752
0.368
-4
-0.184
-0.224
-2
-2.488
-1.24
-1
-0.016
-2.872
-1.448
-1.32
-2.208
-0.024
-1.696
-1.704
-3.4
-1.656
-1.984
-1.368
-4.184
0
-0.248
-0.944
-1.216
-3.664
-2.88
-0.144
-0.976
-0.024
-1.856
-2.76
-1.832
-3.352
-1
-1
-4.2
-0.408
-2.544
-3.008
0.104
-1.4
0.408
-1.304
-1.744
-1.208
0.36
-6.216
-1.192
-0.032
-4
-0.16
-3.36
-1.352
-0.776
-2.272
-0.64
-4.16
-1.832
-1.536
-3.464
-1
-1.784
-1.656
0.704
-1.496
-4.4
-1.152
-4.688
-1.888
-2.008
-2
0.736
-0.592
-3
1.768
-1.16
0.344
-1.872
-2.424
0
-1.96
-2.704
-1.152
-3.336
-1
0.52
-1
-0.144
-1.288
-1.856
0
-3.856
-2.096
-1.144
-3.424
0.28
-2.848
-2.336
0.616
-1.568
-3.4
-1.944
-3.576
-2.248
0.032
-2.72
1
-2.368
-1.456
-1.088
-3.88
-1.008
-2.776
-0.104
0.544
-1.8
-2.752
-2.408
-0.688
-1.392
-1.56
-3.024
-0.536
-3.08
-1.896
1.36
-2
-1.88
-1.352
-2.744
-1.92
-1.064
-4
0.744
-0.776
1.2
-1.376
-2.488
2.088
-3.944
-1.8
0
-2
-1.72
-1.816
-3.44
-0.376
-2.792
-3.704
1.496
-3.12
-2.784
0.952
-1.976
-0.288
-0.12
-2
-1.432
-3.944
-1.248
-0.64
-2.184
1
-1.992
-1.552
-2
-1.352
-2.696
-1
-3.208
-0.68
-0.112
-1.872
0.952
-1.904
-0.08
0.872
-3.824
-1.224
-0.728
-3.04
0.264
-2.168
-1.928
-2.44
-3
-1
0.032
-3.408
-2
-2.2
-1.392
-1
-1.112
0.016
-2.8
-1
0.32
-3.08
-2.464
-1
-2.344
0.12
-1.728
-1.472
-1.52
-1.864
-2.616
-1
-1.712
-1
-0.384
-3.856
-1.904
-1.144
-3
-1.856
-1.616
-2.856
-1.808
-1.76
-0.152
0.008
-1.616
0.704
-1
-1.528
-0.848
-1.624
-2.016
-1.84
-3.304
0.264
0.592
-3.648
-0.12
-3.984
-1.112
-1.896
-2.848
0.6
-1
-2.408
-0.656
0.176
-1.88
-1.048
-2.392
-0.584
-2.472
-2.36
-0.272
-0.896
1.704
-1.128
-1
-0.904
-1.952
-1.128
-0.112
-2.68
-3.416
-1.488
-2.696
-0.408
-1.6
-2.104
1.008
-3.456
-0.184
-2.08
-1
0.528
-0.648
-2.16
2.4
-1.928
-2.976
-0.904
-0.928
-0.24
-2.664
-2
-1.264
-0.752
-1.44
-0.592
-2
0.008
0.76
-1.6
-0.648
-1
-2.464
0.792
-2.68
0
-1.128
0.032
-1.096
-1.68
-2
-1
-1.88
1.912
-1.32
-2.736
-1.416
0.392
-1.024
-0.56
-1
-0.28
1.112
-1.504
-2.6
-0.152
-0.896
2.664
-1.024
-1.96
0.824
-3
1.712
-2.536
-2.56
-1.984
-3.248
-2.576
-0.416
-0.48
-1
-1.384
-2.328
0.136
-2.24
-1.424
0.424
-4
-0.904
-2
-1.952
-1.288
-1.712
-1.384
0.76
-2.712
-1.344
-1
-1.432
-0.48
-2.416
-1.728
-1.376
-1.656
-1.72
-0.696
-3.448
-0.864
-1.44
-4.84
-1.016
-4.776
-2
-0.392
-0.8
1.256
-4.224
-2.032
-1
-1.56
-1.464
-1.928
-2.752
-1.632
-0.64
-1.912
0
-3.648
-2.616
-0.4
-3.872
0.904
0.064
-0.448
-0.84
-3.792
-1.512
0
-4.296
0.2
-1.448
-0.48
-1
-2.632
-2.92
-0.936
-2.472
1
-2
-3.76
1.784
-6
-0.048
-0.072
-4.76
1.496
-1
-4.68
-1.376
-1.28
-2.408
-3
-1.992
-2.76
-2.6
-5.296
-0.696
-1.512
-2.168
0
-4
0.936
-0.048
-3.936
-2
-1.872
-3.648
1.552
-2.184
-1.64
0.104
-1.832
-0.32
-2.952
-2.12
-1
-0.344
-2.408
0.512
0.4
1
-1.312
-4.664
0.992
-2.72
-2.088
1.592
-1.184
-0.928
-2.6
-2.328
-0.504
-1.576
-3.416
-0.52
-2.296
-0.232
-1.672
-1.424
-1.04
-2.768
-1
-1.096
-2.904
-1
-0.048
-1.904
-2.008
-1.616
-1
-1
-0.656
-1.152
-0.704
-2.96
-2.056
-1.696
-0.496
-1.328
-2.72
-1
-0.368
-1.864
-1.912
-1.04
-3.984
-1.112
-3.48
-2.152
-1
-2.504
-0.888
-1
-1.176
-1
-2.536
-1.072
-0.416
-3.896
-1.36
0.64
-3.104
-1.352
-1.128
-0.84
-2.032
-1.984
-3.128
-1
-5.36
-0.04
-2.488
-1
0.408
-3
-1.896
-0.496
-3.456
-1.592
-1.36
-1.688
1.528
-3.432
-1.832
1.28
-0.928
0.048
-1.976
-3.928
1.64
-2.496
0.568
1.472
-2.376
-1.08
-1.184
-3.824
-1
-1.896
-2.2
-0.056
-1.304
-0.976
-0.208
-1
-1
-1.192
-2.952
0.936
-0.92
-1.384
-0.176
-2.328
-1.544
-0.68
-0.736
0.336
-1.536
-1.512
0.12
-2.392
-1
0.816
-1.504
-1.4
-1.152
-1.688
-1
-1.008
0.8
-1
-4.592
-1
-1.768
-2.56
-2.688
-1.624
-1.848
-0.528
-1
0.296
-1.92
-2.992
0.576
-2.52
-1.424
-0.144
-1.904
1.952
-2
-1.952
-1.096
-0.856
0.464
-1.76
-3.424
0.336
-0.232
-1.864
1.52
-3.944
-1.728
-2
-1.672
-2.72
-1.696
-2.896
-0.136
-2.088
-2.96
0.984
-3.664
-2.312
-1.152
-1
-1.248
-1.52
-2.688
-1
-1.56
-0.976
-2.392
-1.752
-1
-1.6
-2.456
-1.224
-4.296
-0.872
0.76
-1.968
-0.08
-0.872
-4.664
-0.84
-1.376
-1.024
-1.304
-2
-1.4
-2.656
-1.992
1.824
-1.408
-0.36
0.064
-5.736
0.352
-1.168
-1.12
-0.072
-3.952
-2
-1.144
-1
-0.008
-1.136
-1.792
-1
-2.28
0.144
-1
-2.504
-1.656
0.2
-2.296
1.304
-0.024
-3.752
-0.16
-2
-1.744
-1
-2.872
-0.24
-1.744
-1.352
-0.12
-0.456
-1.64
-0.896
-1.584
-0.928
-1.464
-2.44
1.392
-1
-2.704
-1
-0.8
-0.848
-1.104
-3
0.984
-1.96
-1.088
-2.136
-2.632
-1.464
-1.44
-2.344
-1.752
-3.152
-2.056
0.04
-1
-0.232
-0.672
-3.424
0.72
-1.576
-5.56
-1.096
-3
0
1
-1
0.712
-1.232
-1
-1.288
-1.664
-0.152
-0.84
-3.48
-0.472
0
-2.368
-1
-1.56
-2.072
-1.184
-1
-0.824
-2.08
-3.976
0.664
-5.48
-1.456
-1.8
-2.76
-0.592
-2.312
-3.608
-1.56
-2.024
-1.536
-0.584
-2.736
-3.04
-2.088
-3.552
-0.176
-3.872
1
-0.064
-1.968
-1.128
-1
-2.68
-0.792
-1.256
-1.608
-0.296
-3.2
-1.792
-0.016
-4.088
-1
-1.64
-4.44
-1.528
-1
-2.496
0.52
-2.856
-1.048
-2.952
-2.856
-0.76
-1.16
-2.864
-1
-1.752
0.64
0.224
-2
-2.504
-1
-3.4
-0.408
-3.304
-0.488
0.584
-2.36
-1.336
-2.064
-0.968
-1
-1.84
1.232
-1.648
-2.224
-0.272
-2.04
0.896
-1.584
-3
0
-2.32
-3.608
-0.344
-1.296
-1.504
1.46E-11
-3.544
-1.896
-2.168
-4.96
-1
-2.824
-1.136
0
-3.768
-2.12
-1.344
-3.248
1.152
-0.64
-1.52
-0.864
-1
-0.328
-2.288
-3.52
-1
-1.288
-2.616
-1.952
-4
-2.192
-0.52
-1
-2.192
-0.04
-3.288
-1.336
0.536
0.136
-0.44
-2.472
-1.456
-2.624
-3.016
0.44
-1
0.184
-1.136
-0.824
0.92
-0.984
-1.056
1.48
-1.936
-2.2
1.504
-3.816
-1.032
-0.608
-3.88
0.048
-1.464
-1.336
-0.632
-1.68
0.456
-1
-1.824
1.872
-1
-0.936
-0.064
-2.872
-4.224
-0.16
-4.168
0.232
-2.392
-2
-1
-1.104
0.016
2.088
-2.408
-0.44
-1.624
-3.472
-0.216
-2.832
-2.76
1.568
-3.904
0.928
-1
-1
-1
-2
-2
0.248
-2.72
-0.816
-3.176
-1.496
-1.552
-1.4
-0.944
-1
-1.512
-1.792
-1.64
-3.44
0.808
-1.016
-3
-0.92
-4.104
-0.352
-1.776
-1.272
0.36
-1.632
-2.832
-1.464
-2.488
-1.56
-1.784
-1.656
-0.704
-2.752
-2.4
-0.152
-2.792
2.832
-1.008
-2.08
-0.264
-2.864
-3.816
-0.536
-1.44
-0.656
-1.248
-2.152
1.64
-0.48
-1.704
-0.384
-1.336
0.576
1.28
-2
-3.568
-1
-3.712
3
-1.904
-0.192
0.712
-1
-0.24
-1
-1
-1.152
-1.432
-1.96
1.584
-1.848
-1
-0.312
-1.72
-0.304
-2
-2.456
-1
-2
-1.024
-1
-1.896
2.24
-1
0.504
1
-4.28
0.04
-0.24
-0.464
-0.072
-1.416
-2.264
0.68
-1.816
-0.328
1.296
-5.488
1.08
-1.064
-2.984
-1.064
-2.552
-3.48
-0.584
-3.232
-2.304
0
-1.2
0.104
-2.008
-1.088
-1.816
-1.28
-2.064
-1.32
-1.92
0.832
-2
-3.712
0.88
-2.952
-1.144
-0.88
-3.664
-1
-1
-1.936
-0.28
-1.408
0.088
0.016
-1.896
-1
-0.408
-2.088
1.72
-2
-1.68
-0.112
-3.744
-0.016
-1.904
-1.92
-1.128
-1.352
-0.672
-1
-1
-1.368
-0.336
-1.464
-0.488
-1.88
-1.432
1.592
-1.704
-0.504
-1.6
-0.696
-0.104
-2.112
-0.992
2
-1.912
0.592
-0.632
-2.232
-0.4
-3.032
-1.504
-0.152
-2.056
-0.52
-1
-1
0.328
-1.864
-1.56
0.616
-2.856
3.52
-1.24
-3
1.904
-1.808
-0.288
-1.808
-3.04
0.136
-0.992
-1.616
0
-2.52
-0.528
1.576
-3.128
-2.016
-1.56
-4.84
-1
-2.728
0
0.92
-3.96
-2.112
-4
-1.848
-1.6
-0.504
0.408
0.312
-2.608
-1.88
-0.536
0.072
-0.584
0.264
-2.68
-0.272
-1.224
-2.944
1.232
-4.68
-2
-2.952
-0.192
0.552
-2.68
-0.248
1.768
-0.912
0.296
-2.8
-1.792
1.496
-0.088
-0.96
0.2
-2.688
0.736
-1.648
-0.664
-0.12
-3.784
0
-0.904
-1.928
-0.36
-1.664
-3
0.944
-2.376
-0.16
-1.776
-1.456
-0.496
-0.896
-0.8
3.296
-3.304
-0.488
0.96
-1.84
0.224
-0.128
-5.856
0.936
-0.92
-1.256
-1.176
-4.776
0.456
-2.04
-1.736
-1.416
-1.608
-3.048
-1
-1.784
-1.656
2.52
-1.256
-1
-2.152
-0.688
-1.056
-2.984
-1.2
1.088
-1.272
-1.368
-1.536
-2
-0.016
-2.624
-0.848
-1.528
-3.48
-1.136
-2.92
-0.664
1.136
-1.76
-2.424
1.28
-2.808
-2
-1
-2.952
-1
-2.712
-2.424
-0.28
-2.712
-1
-0.232
-0.432
0.44
-2.528
-2.304
-0.504
-0.328
-1.16
-0.928
-1.632
0.728
-1.264
-3.88
-1.976
-4.832
1.376
-2.936
-4
-1.752
-0.704
-2.032
-1
-2.24
-0.976
-0.32
-1.584
0.264
-2.28
-1.184
1.328
-3.176
-1.744
-2.16
-5.84
-1
-2
-2.112
-1
-1.792
-0.28
-3.784
-2.296
0.2
-0.76
-0.488
-0.912
-2.408
-2
-0.872
-2.264
0.216
1.328
-2.52
0.856
-2.952
-1.024
-0.928
-4.52
-0.168
-2.568
-2.208
0.064
-2.64
-0.816
0.368
-3.512
-2.208
-1.2
-2.296
0.872
-2.768
-1.376
-1.64
-3.776
-0.872
-1.032
-2.936
-1
-2.616
-3.176
-0.328
-3.456
-1.92
-2.528
-2.248
-0.392
-2.464
-1.56
-2.568
-0.968
0.408
-1.248
-2
1.392
-1.896
-1.832
0.96
-2.92
-0.176
-2.32
-3.368
-3.536
-2.88
-1.984
-2.248
-2.576
-0.944
-2.92
-1.272
-0.232
-1.336
-0.136
0.04
-1.192
0
-1
-1.048
-1
-1.856
-2.192
-1
-1.424
-1.48
-3.136
-2.664
-1.616
-0.136
-2.44
-0.944
-2.848
-0.624
-1
-2.72
-1.304
-1.368
-1.32
1.472
-4.84
-2.008
-0.888
-1
1.392
-4
-2.248
0.408
-1.624
-2.176
-2.24
-1.024
-0.072
-1.664
-0.896
-1
-4.272
-0.776
-1.176
-1.872
0.24
-1.032
-3.952
-1
-2.776
-1.32
-1.208
-1.744
-1
-1.592
-2
-0.76
-0.504
-1.72
0.184
-2.28
-0.064
-1.264
-2.568
-1.168
-1.24
1
-0.048
-4.904
-0.072
-2.76
-3.664
-1
-1.944
-1.248
-3.36
-2.184
-1.456
-2.984
-3.312
-0.2
-2.056
-1.696
-1.512
-1
2
1.44
-3.68
0.968
-3.904
-5.68
-1.872
-3.472
-0.224
-1.456
-3.36
1
-2.168
-4.392
-2.952
-3.88
-3.648
-2.032
-1.816
-0.504
-1.4
-2.544
-2.208
-1.944
-1.984
-1
-3.824
-1.272
-5.264
-1.768
0.88
-2.688
-0.752
-1
-3.056
1.08
-0.432
-1
-0.336
-3.288
-2.04
0.424
-3.136
-0.096
-2.192
-1
-1.192
-3.424
-1.576
-1
-4
0.136
-1
-1.384
0.568
-2.08
-2.056
0.304
-2.248
-0.328
-1
-2.536
-1.816
-1.864
-1.912
-1.16
-3.952
-0.168
-0.896
-2
-1
-2
-2.704
-0.312
-2.392
0.68
-1.512
-2.536
0.832
-2.104
-2.04
-0.544
-3
-0.176
-0.256
-4.76
-1.096
-2.92
-2.064
-0.112
-3.2
-1.416
-1
-0.608
-2.296
-0.2
-1.344
0.504
-3.088
0.632
-0.72
-1.064
-0.736
-2.432
-3.16
-1.48
-2.928
-1
-0.952
-3.64
1.4
-2.664
-1.432
-0.472
-1.688
-0.36
-1.592
-3
-1.008
-2.792
-2.2
-2.056
-2.392
-2.232
-0.208
-4
-0.112
-1.192
-1.984
-1.032
-2.68
-1.384
-0.824
-3.776
-1.272
-2.72
-1.472
-1
-0.464
-0.536
0.12
-1.784
-0.968
-1.592
-3.008
-0.8
-2.304
-1.896
0.664
-2.992
-1.12
-1.736
-3.864
-1
-1.232
-1.28
-1
-3
-1.848
-1.056
-1.52
-0.704
-2.152
0.664
-0.864
-3.04
0
-3.144
-1.808
2.808
-1
-3.096
-0.904
-3
-0.576
-1.8
-1.288
-1
-2.848
-1.864
0.44
-1.112
-4.152
-0.128
-2.688
0.6
-0.768
-0.816
-1.272
-2.824
-1
0.008
-3.832
0.584
-1.544
-0.6
0.008
-1.704
-0.376
1.392
-2.12
0.488
-1.464
-1.92
0.632
-2.04
-0.728
0.328
-1.824
-1
-1.16
-1.904
-1.016
-3.744
-1.336
-0.52
-1.584
-1.256
-1.088
-2.056
-1
1
-1.488
-0.456
-3
-0.28
0.128
-2.68
-0.216
-1
-1.52
-1.928
-2.952
0.952
-1
-3
0.496
-5.136
-2.264
-0.688
-4
-0.816
-2.632
-0.008
0.656
-1.4
-2
-0.52
-2.488
-1.208
0.04
-0.776
0.744
-3.936
-0.16
-1
-1.872
-0.056
-3.208
-1.544
-2.32
-3.528
-2.248
0.072
-1.464
-0.88
-2.176
-2.312
0.408
-3.256
-1.4
1.24
-4.48
0.888
-2
-3.96
-1.176
0.864
1.08
1.232
-3.16
-1
-1.872
-2.272
-1.472
-3.96
-0.272
-0.92
-3
-1
-2.24
-3.848
0.424
-2.192
-1.952
-2
-2.904
0.904
-0.856
-2.192
0.52
0.712
-1.344
-2.232
-1.432
-1.48
0.696
-3.304
-1
-1
-1.16
-1.464
-2.816
-0.864
-3
-0.96
-1.008
-0.888
-2.208
-0.152
-3.4
0.504
-0.408
-1.688
-1.392
-3.68
-2.416
0.608
-1.168
2.368
0.08
-2.912
-1.224
-1.88
-1.488
-0.08
-3.904
-1.08
-2.936
-2
0
-1
-0.256
1.696
-2.648
1.2
-1.552
-3
0.456
-1.592
-3.2
-1.624
-3.264
1
0.496
-1.76
1
-1.048
-1.096
-1
-3.64
1.496
-1.216
-3.736
0.376
-1.2
0.144
-0.088
-1
-0.552
-2.2
-4.944
0.696
-2.768
-0.584
-1.16
-2.112
0.064
-0.048
-2
2.76
-2.616
-2.352
-1.776
-3.456
0.36
-2.264
0.416
-1
-1.44
-2
0.216
-2.032
-2.816
0.008
-2.8
1.544
-2.208
-3.664
-1.016
-2.8
-0.176
-0.728
-2.632
0.304
-2.72
-2.312
-0.624
-3.576
0.056
-1.96
-4
-1
-2.336
-0.424
1.28
-2.616
-3.568
0.616
-3.76
0
-1.048
-3
0
-4.232
-2.96
-0.272
-3.664
-0.152
-1.568
-3.44
-0.416
-3.152
-2
0.016
-0.44
0.464
-1
-3.592
-1.088
-3.08
-0.016
-1.888
-4.688
-1
-2.6
-3.248
0.408
-0.624
-1
0.32
-1
-0.608
-1.416
-1.896
0.36
-0.36
-1
0.648
-3.744
-1
-3.032
-5.936
1.808
-2.888
-3.84
-1
-4.976
-0.912
-0.296
-2.6
-1.552
-1.496
-1.632
0.776
-2.92
0
-0.32
-4.488
-1.832
-0.24
0.144
1.856
-5.88
-0.36
-1.88
-2.168
1.352
-1.208
-1.936
-0.56
-4.184
-1.912
-0.488
-1
0.8
-1.704
-3.176
-2.256
-1.792
-1.52
-3.776
-3.744
-1
-1.968
0.68
1
-4.944
-1.224
-1.912
-1
0.264
-2.92
-1.928
-0.976
-1.44
-0.824
-1.376
-1
-0.248
-2.6
-1.544
0.376
-1.832
-2
-1.84
-1.824
-1.408
-1.184
-1.696
-1
-2.344
-1.376
-1
-2.528
-2.04
-3.296
-2.08
-0.008
-2.576
-1.76
-2.384
-0.856
-1.096
-1.952
-2
-0.048
-4.616
-2.288
-0.808
-3
-2
-1.32
-0.92
0.136
-1
-0.584
-0.424
-0.872
-0.656
-2.56
-2.84
-0.552
-2
-1.736
-0.16
-1.992
0.72
-3.792
-3
-1
-5.008
-2
-1.624
-0.784
1.12
-1.512
-3.144
-1.248
-2.632
-2.68
1.184
-3
-2.648
-3
-1.92
0.904
-2.968
-1.192
-1
-4
-1.792
-3.976
0.088
2.352
-1.8
0.104
-1.008
-2.456
-1
-3
-2.688
-0.056
-1.92
-3.664
-0.72
-3.784
-1
-2.928
-1.36
-1.88
-4.328
0.568
-3
-3
-0.8
-1.96
-1.456
-1.504
-1.552
-1
-1.352
-1.176
-0.256
-1.624
-4.04
-0.56
-4.744
-1.968
-0.968
-4.84
-0.384
-2.944
-1.672
-1
-2.4
-0.736
-1.336
-3.464
-2.488
-2.32
-2.824
-1.688
-3
-1.256
-1.4
-3.544
-2.104
-3.056
-2.968
-0.04
-2.824
-2.272
-2.632
-1.232
-0.28
-2.344
-3.248
-1.576
-1.472
-1.08
-1.432
-1.232
0.328
-0.016
-3.28
-0.424
-2.144
-3.712
-2.096
-1
0.904
-1.904
-2.144
-0.616
-1
-2.576
0.008
-1.384
0.272
-2.56
-2
-1.424
-1.752
-1.344
0.04
-2.768
-1
-2.544
-3.736
-1.2
-1.984
-2.056
-0.104
-2
-2.18E-11
-1
-2.592
-0.032
-0.824
-2.32
0.464
-2
-1.168
-2.104
-4.04
0.912
-2.224
-2.648
1.36
-3.76
-1.096
-1.968
-3.872
-1.336
-3.68
-0.04
-3.256
-3.088
-0.704
-2
-1.448
-1.984
-2.368
-1
-0.08
-1.312
-2.208
-1.296
-2.328
0.76
-2.072
-1.952
-0.952
-2.856
-0.12
-1.328
-1.784
-1
-0.752
-1.36
-0.592
-3.088
0.48
-0.344
-1.4
0.296
-2.304
-3.232
-2
-4.68
-3.664
-1.256
-2.952
-2.064
-2.84
-0.384
-0.824
-1.88
-2.544
-1.72
-1.632
0.92
-2.608
-3.536
1
-3
-0.312
-0.592
-2
-2.2
-4
-2.584
0.776
-1.024
-1.12
-0.912
-2.728
1.448
-4.84
-3.72
1
-2.872
0.304
-1.528
-3.52
-0.432
-1.384
-1.992
-0.152
-3.76
-0.616
-1.288
-6.616
-1.952
-2
-3.048
-1.096
-4.136
-1
-0.52
-1
-1.008
0.152
-1.432
-0.52
-3.416
-1.304
-1.376
-3.672
-0.56
-1.232
-2.816
-0.136
-1.264
-1.88
-1.008
-4.832
-0.416
-2.24
-3
1.256
-2.816
-1.688
0.392
-3.24
-0.512
0.144
-2.336
1
-2.28
-2.912
-1
-1.824
-1
-2.32
-2.968
-2.984
-1.808
-1.224
-1.32
-4.376
-1.768
-0.784
-2
-0.2
-1.208
-1
0.088
-1.816
-4.2
-1.248
-2.472
1.568
-2.832
-0.4
-1.928
-2.048
-1.12
-1
-1.88
0.496
-1
-3.528
-0.376
-2.36
-1.632
-2.088
-1.504
0.448
-0.6
-1.704
1.088
-2.512
-1.584
1.52
-3.664
0.872
-0.064
-1.096
-1.08
-4.36
-0.704
-0.552
-4.184
1.04
-1.632
-1.416
-0.392
-2.952
-0.68
-3.176
-3.312
-0.704
-1
-1.8
-0.152
-3.792
-1.944
-1.008
-1.96
1.648
-2.592
-1.184
-0.232
-4.6
-2
-1.624
-3.848
-0.472
-0.4
-2
-1.616
-1
-1.424
-1.48
-2
0.712
0.52
-3.904
-1
-3.856
-1.288
0.144
-5.616
-1.48
-0.136
-0.344
1.464
-2.704
-1.92
0.056
-2.152
-1.248
-2.984
-2.16
0.768
-1
-2.728
-0.088
-2.84
-2.992
-1
-2.104
-1
-2.2
-0.744
1.296
-0.968
1.432
-3.24
-1
0.536
-2.664
-1.528
-1.32
-2.728
-0.328
0.12
-0.616
0.76
-5.84
0.968
-0.936
-2
-0.96
-3.168
-3.256
0.696
-2.944
-1.8
-0.448
-2.496
0.456
-2.224
-0.28
-0.312
-1
-2.568
-1.168
-4.4
-0.856
-2.048
-1.072
-0.072
-2.64
-0.672
-0.784
-4.264
0.44
-1.92
-2.632
1.456
-2.992
-1.448
-1.4
-1
-1.088
-1.768
-1.416
-0.16
-5.112
-0.936
-2.016
-3.904
-2.92
-1.616
-1.88
1.88
-1.728
-3
0.104
-4.168
1.608
-1
-2
-1
-1.344
0.184
2.256
-2
-0.848
-0.104
-3.776
-1
-1.88
-3.088
-0.456
-3.816
-1.16
-2.6
-3.672
-2.248
-1.576
-1.888
0.56
-1.728
-0.848
-0.336
-4.136
1.28
-3.576
-1.568
0.712
-2.952
0
-0.904
-3
-2.288
-2.04
0.52
-0.712
-1.336
-2.536
-1.84
-3
-1
-2.696
-0.496
0.016
-2
-2.304
-0.472
-3.184
0.648
-3
-3.008
0
-3.688
-1.152
-2.2
-2.504
-1
-3.968
-1.784
0
-3.512
-0.68
-0.832
-1.632
-2
-1
-2.88
-0.528
-1
-1
-2
-2.016
-1.128
-1.664
-4
-0.208
-1
-0.304
-1.648
-2.6
1.448
-1.496
-2.544
0.184
-3.72
-1.376
-0.32
-2.352
-3
-2
-2.856
-3
-1.904
-0.288
-1
-1.336
-1.432
-1.944
-2.936
-2.36
-3.368
0.088
0.016
-2.656
-1
-2.76
-2.392
0.232
-3.416
-2.04
-1.336
-3.808
-1
-2.904
-2.24
-1.128
-5.12
1.104
-0.184
-3.36
-0.736
-3.336
-1.928
-1
-3.56
-3.432
-0.376
-2.704
-1
-1
-0.848
1.376
-4.888
-1.008
1
-5.736
1.456
-2.448
-1.232
0.28
-4.672
-1.504
-3
-3.416
-1
-2
-2.08
-0.336
-2.576
-0.48
-1.576
-2.712
-1.904
-2.144
-2
0.904
-1.712
-0.144
-1.616
-3
-0.728
-1.992
-2.536
0.568
-1
-3.168
-0.848
-2
-0.672
-2.4
-1
1.448
-1.272
0.088
-3
-3.968
0.776
-2.688
-2.456
-0.8
-2.504
-1.184
-2.28
-2.608
0.24
-1.512
-0.144
-0.664
-2.264
-0.04
-0.728
-2.224
1.824
-2
-0.84
1.872
-2.968
-2.064
1
-4
-1.208
-2.488
-0.608
-0.352
-3.8
-1.344
-1.52
-2.088
-2.184
-2.44
-3.752
-1
-2.648
-4.16
-1.36
-4.712
-0.024
-1.976
-0.072
1.76
-3.496
-0.864
-2
-3.064
-1
0.04
-0.912
0.008
-4
-1
-2.408
-2.608
-1
-1
-0.68
1.664
-3
-1
0.904
-3.92
0.616
-1.944
-2
-1.272
-4.4
-2
-1
-3
1.464
-1.88
-1.824
-1.656
-4
-1
2
-1.848
-1
-2
-2.976
-1
-1.736
-1.408
-0.632
-3.232
0.44
-2.688
-2.128
-0.152
-2.112
-2.52
-1.296
-2.232
-0.336
-1.864
-3.28
-1
-4
-2.808
-1.192
-3
0.712
-1.904
-2.856
0
-2.52
-0.424
-1
-1.536
0.704
-1
-0.528
-0.424
-1.752
-1
0.72
-1.768
-1
-1.864
-2.648
-1.04
-1
-2
-0.104
-0.848
-1
-4.008
-1.888
-0.312
-1.824
0.24
-2.536
-3.464
-1.168
-3.208
-3.68
1.912
-4.224
-1.824
-1
-1.84
-1
-2
-3.936
0.664
-0.68
-0.416
-1
-2.696
-1.704
-2.8
-4
-1
-2
-1.592
-2.36
-3.064
-0.472
-1.432
-1.496
-1.24
-1.144
0.048
2.952
-3.712
-0.36
-1
-1.864
-0.792
-1.752
-2.08
-1.408
-2.632
-1.016
-0.448
-3.4
-1
-2.304
-0.976
1.96
-2
0.112
-1.32
-4.952
-0.032
-2.6
-1.512
-1.824
-2.672
-1.544
-3.4
-2
-1
-2.072
-2.536
-1
-3.784
0.688
0.816
-4.008
-1.6
-2
-4.584
-1.224
-3.976
-0.08
0.264
-2.136
-1.368
-1
-3.56
-0.328
-1.376
-1.696
-1.528
-4
-1.136
-1.536
-2.664
1.136
-2.52
-0.424
-1.288
-3.808
-2.904
-1
-1.144
1
-3
0.232
-2.52
-2.288
-0.664
-2.848
-1
-2.04
-1.944
-0.424
-2.128
-4.016
-0.44
-1.232
-1.264
-0.408
-3.736
-1.96
-2.984
-2.944
0.792
-1.696
-1.6
-1
-4.112
-1.688
-0.824
-2.44
-2.488
-2.392
-1.584
-1.632
-2.68
-1.184
-0.448
-4.648
-2.128
-1.32
-1.872
-0.952
-1.936
0.664
-0.84
-1.624
-1.256
-2.392
-2.408
-1
-1.448
-1.488
-1.912
-3.184
-0.28
-3.624
-2.472
0.92
-2
-2
-3.144
-1
0.904
-4.568
-2.24
-1.832
-3.568
-0.264
-1.688
-2.28
-1.408
-2.544
-3.016
1
-3
-0.24
-1.304
-3.488
0.584
-3
-2.776
0.808
-2.032
0.808
-1
-4.616
0.296
-3.328
-2
-1
-2.632
0
-1.608
-3
-0.12
-1.392
-2.656
-0.184
-1.496
-0.2
0.392
-1
-0.112
-3.008
-0.08
-1
-2.728
0.712
0
-1
-0.312
-2.248
-0.424
-0.528
-2.44
-1.272
-0.384
-1
-1
-2
-1.616
-1
-2
-0.904
-1
-3.904
-1
-1.568
-2.192
0.76
-3
-0.688
-2.616
-1.432
-0.92
-1.416
-0.576
-0.376
-2.984
-1.28
-1
-1.816
-0.728
-0.176
-1
-1.016
-2.832
-0.104
0.544
-1
-1.248
-0.112
-0.344
0.392
-1.56
-2.952
1.536
-3
-0.528
-1.96
-2.184
0
-2.528
0.256
0.68
-3.936
-0.032
-2.872
-4.224
-0.16
-4.168
-1.024
-0.088
-4.592
-2.6
-2.656
-1.496
-0.456
-1.408
-1.64
0.376
-1
-1.784
-2.168
-4.28
1.712
-1
-1.096
-1.072
-5.52
-3.336
-0.568
-1.528
-0.312
-4.28
-3
-2.176
-1
-0.208
-2.6
-2.352
-0.608
-2
-1.792
-0.48
-3
-0.128
-1.016
-3.904
-0.16
-3
-3.824
-1.328
-1
1.4
-0.632
-3.08
0
-3.464
-2.12
1
-2.968
0.592
-1
-2.6
-1
-2.416
-1.888
-1
-3.88
0.736
-1.728
-3.632
1
-1.72
-0.984
-0.248
-2.152
-0.944
-0.48
-2.568
0.232
-3.664
-1.712
1.28
-2
0.432
1.424
-3.76
1
-1.904
-1.904
-1.144
-1.808
-1.76
-1
-3.336
-1.384
-0.976
-1.44
-1.472
-2.272
-2.376
-2
-2.88
-1
-1.552
-3.456
-2
-3
-1.032
-1
-2
-2
-2.4
-1.496
-1.296
-3.936
-2.784
-0.68
-1.512
-1.072
-1.832
-1.896
-1.64
-3.544
-2.104
0.472
-2.744
1.92
-1.096
-3.984
-1
-2.552
-1
-0.792
-1.256
0.392
-4.296
-4
-0.552
-2.496
-1.264
-1.816
-3.28
-2
-2.528
-1
-0.664
-3.4
-0.144
-2.048
-2.88
-0.144
-1.88
-2.336
-1
-1
-0.624
-0.64
-0.592
-1
0.512
-2.552
1
-0.704
-1.176
0.72
-3.376
-0.16
-1.112
-2.872
-1
-0.936
-2.08
0.744
-3.648
-2
-2.728
-1.32
-0.472
0.168
-1.464
-1
-1.56
-0.432
-2.688
-2
-0.248
-2
-1.544
-1.208
-2.888
-1
-1.04
-3.912
-0.272
-1.448
-3.16
-1
-3.016
-2.752
-1.152
-4.944
0.48
-3
-2.696
-0.672
-2.136
-1
0.424
-5.424
-0.096
-3
-2
-0.048
-3.712
-2.432
-0.616
-3.52
-0.864
-0.656
-1.768
-0.432
-2.56
-1.696
-1.696
-3
1.656
-1.56
-3.608
-0.368
-5.456
-2.736
-1.08
-3.968
0.832
-2
-2.696
-0.4
-1.248
-1
-0.312
-4.392
-1.12
-3.048
-2.608
-1.248
-3.368
-2.68
-1.36
-2
-0.176
-1.128
-1.84
-1.064
-4.936
-1.128
-0.888
-2
1.336
-1.744
-2.392
-1.352
-2.6
-1.688
0.48
-3
-1.592
-2.08
-2.376
-0.264
-2
-4.16
0.76
-3.712
-0.024
-0.952
-1.928
-0.12
-1
-2.432
-1.472
-1.688
-1.64
0.224
-2.456
-2.008
-2
-0.8
-0.352
-1.608
-2
-1.208
-2.36
1.552
-1.128
-0.984
-1.064
-6.6
0.744
-1.296
-2.224
0.184
-2.68
-3
-0.584
-3.608
-1.536
0.8
-2.432
0.312
-2.888
-1
-0.2
-2.696
-0.584
-1.112
-2.96
-1.04
-3.736
-1.408
-1.816
-2.608
-1.56
-0.344
-1.376
-2
-1.528
-3.04
-0.432
-2.152
-1.328
0.424
-0.52
-1.192
-2
-3.424
-0.144
-2
-2.952
-1.096
-4.424
-1.576
-1
-1.864
0.664
-4.464
-2.16
-1.52
-2.472
-1
-0.632
-2.016
-1.56
-2
-1.264
-0.544
-2.824
-1.88
-2.96
-1
1.48
-3.544
-1.6
-2.256
-2.408
0.344
-2.216
-3.2
0.024
-3.784
-2.168
-0.104
-3.04
-1.272
0.552
-1
-0.256
-1.92
0.936
-1.952
-3.808
-0.336
-1
-3.584
-1.512
-4.48
-1.352
0.6
-3.104
-2.488
-2.368
-1.368
-1.72
-2
-2.944
0.568
-1.832
-1.88
-1.144
-0.904
1.88
-4.568
-1.36
-0.664
0
0.472
-0.064
-2.72
0.184
-1.544
-3.512
0.552
-2.2
1.704
0.088
-1.232
-2.208
-2
-3.44
-2.064
-1.984
-0.128
-3.76
-2.872
-1.824
-0.552
-0.544
0.6
-3.632
-0.248
-0.072
-3.488
-1
-0.784
-3.312
0.408
-3
0
-1
-1.792
-1
-2.016
-1
0.824
-2
2.08
-1.232
-2.44
-1.656
-1.248
-1.848
-0.584
-1
-2.136
-0.536
-1.336
-1.136
-1.48
-2.04
-1.288
-3.904
0.144
-1
-1.096
-1.096
-0.856
-2
-0.2
-4.136
-1.344
0.152
-2.136
0.56
-1.944
-2
-1
-3.328
-3.16
-1.464
-2.632
-1.136
0.472
-1
1.976
-4.832
-2
-1
-1.8
-0.24
-0.112
-3.688
-0.216
-2.12
-1
-1.464
-3
-0.264
-1
-2.728
1.328
-3.472
-3.488
-2.16
-2
-1
-2.744
-2.112
1.36
-2.376
-1.024
-1.696
-2.296
0.2
-2.104
-3.496
-1.544
-3.592
-0.28
-1
-1.736
0.568
-1.336
-4.76
-1.072
-3.976
-1.048
0.928
-1.88
-0.176
-1.352
-2.264
-0.312
-1.92
-2.04
-0.088
-1.496
0.344
-2.2
-3.944
0.088
-2
-0.376
-1.16
-2.888
1.808
-1.048
-3.968
-1
-2.744
-1.528
-0.776
-1.272
0
-2.264
-2.832
-1.928
-1.976
-0.56
0.824
-2
-0.704
-1.744
-0.4
-0.152
-3
0.944
-1
-3.88
-1
-1.592
-1.368
-1
-2.44
-0.296
-2.496
-1
-0.888
-1.44
-2.136
-1.616
-1.344
-0.848
1.56
-4.232
-0.856
-2.288
-3.904
0
-1
-2
2.568
-1.808
-0.72
-1.136
-1.664
-0.232
-1.704
0.04
-1.472
-1.576
-0.248
-1
-2.16
-1.232
-1.736
-2.728
-1
-1.88
-0.024
-1.944
-4.792
1.24
-2.4
-1.248
0.112
-2.968
-1.784
-1
-3.464
0
-1
-3.792
-1.64
-2
-1.552
0.472
-1
-0.08
-1.064
0.968
0.872
-4.664
-1.32
-0.792
-1.512
-0.52
-3.592
-1.6
0.104
-3.016
-1.176
-1.408
-2.28
-0.688
-2.528
-3.568
-1.504
-2
-0.712
-1.024
-4.928
-0.216
-2
-2.168
-0.432
-1.208
-0.248
-0.36
-2.408
0.088
-2.488
-2
-0.2
-2.296
-1.088
-3.232
-4.376
-0.68
-2.336
-3.552
-0.016
-4.808
-1.08
-0.872
-3.824
-1.672
1.544
-2.36
-1.736
-2.168
-0.32
-0.416
-3.12
-1
-1.688
-2.704
0.504
-1.2
-2.696
0.688
-3.056
-0.992
-1.96
-1.736
0.456
0.184
-0.768
-1.56
-4.016
-0.752
-2.728
-2.472
-2.04
-0.296
-2.848
0.656
-3
-0.76
-0.576
-1
0.808
-2.048
-4
0.856
-3.712
2.136
-1.616
-2
1.848
0.008
-1.768
-0.136
-2.96
-2.584
0.152
-1.624
-1.328
-1.84
-1.536
-1
-2.864
-0.912
0.88
-2
1.832
-0.896
-1
0.2
-2.504
-1.296
-0.312
-1.824
1.12
0.464
-2.464
0.168
-0.736
-2.36
1.184
-2
-0.176
-0.384
-1.6
-1.032
-2.904
-2.936
-1
-1.84
-0.792
-0.976
-1.696
0.592
-1.6
-3.792
0.488
-0.632
-0.776
0.28
-1.688
2.472
-0.648
-4.328
0.52
-3
-0.024
1
-1
-0.24
-2.328
0.352
0.208
-4.064
-0.44
0.408
-2
0.496
-2.24
-1
-0.648
-2.392
0.512
-1.208
-4.36
-1
-2.936
-1.952
0.904
-0.84
0.232
-1
-3
0.184
-1.04
-2.104
0.584
-2
-2.56
-1.32
-3.216
-1.968
-1.888
-1
1.2
-1.304
-1
3.496
-1.992
-0.08
-1
-1
1.184
-0.304
-1.72
0.344
-2.376
1.576
-1.056
-2.04
2
-1
-0.328
-1.152
-4
0.192
0.712
-1.808
-2
-2
-1.048
1
-3.568
1.424
-0.52
-1.712
-0.664
-1.616
-0.728
-0.56
-1
-0.728
-1
-4.016
0
-1.696
-3.448
0.592
-3.824
-1.96
-0.968
-1
0.688
0.152
-1.6
-1
-2.408
-1.032
-2.648
-2.44
-2.464
-2.392
-2.752
-0.104
-1.64
-1.64
-1.224
-3.648
-1.872
-1.08
-2.872
-2
-3.68
-3.224
-1
-3.792
-2.744
-4.48
-1.648
-0.8
-3.656
1.016
0.088
-2.592
-2.28
-0.936
-3.208
1.352
-2.336
-1
-0.072
-1.024
2.832
-0.784
-1.12
-2
-2.92
-1.528
-2.064
-2.64
-1.224
-1.72
-3.024
0.656
-4.8
-1
0.48
-4.232
0
-1.84
-1.552
2.68
-2.032
-2
-0.08
-3.872
2.296
-2.552
-4.728
0.36
-0.264
-0.416
-1.464
-2
-1.12
-1.784
-3.624
-0.184
-1.744
-1.6
1.544
-2.104
-1.832
-1.04
-1.04
-0.176
-1.864
-1.368
-0.232
-3.44
-1.656
-2.496
-2.544
-0.472
-3.44
-3.136
-0.152
-3.328
-3.136
-3
-2.616
-0.568
-4
-1.952
1
-2.856
-0.288
-1.28
-1.384
1.56
-1.136
-1.336
1.232
-3.704
1.08
-0.472
-1.152
1.496
-2.672
-0.44
-1.464
-3.368
-1.728
-0.176
-2.88
-0.016
-1.664
-2.208
-0.848
-4.4
-1.744
-0.52
-3.624
-0.216
-1
-1
-0.536
-4.08
-1.368
-0.32
-2.184
-0.776
-1.528
-1.488
1.76
-0.968
-1.984
-1
-2
-1.16
-1.584
-1.768
-1.392
-2.296
-2
-1.104
-1.504
1.088
-0.408
-2.64
0.312
-3.736
-2.136
-1.336
-4.52
-0.144
-1.024
-3
0.568
-3.76
-2
-0.352
-3.208
1.816
-2.28
-0.408
-0.368
-2.488
-1.312
-1
-3.352
-0.088
-2
-2.96
2.88
-2
-0.808
0.936
-2.904
-0.16
-5.104
-3.472
0
-1.728
-0.6
0.368
-2.248
-2.928
-1
-1.44
-0.784
-1.688
0.184
-1.744
-1.8
-4.088
-3.208
-3.832
1.952
-1
-3.176
-1.728
-3.448
-0.232
-1.16
-1
-1
-3.728
-0.416
-1
-2.728
-2.848
-1.672
-1.56
-1.28
-1.384
-3.568
-1
-1
0
-2.664
-1.192
-0.144
-1
-1
-1
-2.336
-2.152
-0.272
-1.48
0.416
-2.272
-1.624
0.328
-2.44
-2.536
0.528
-4.184
1.648
-1
-0.04
-0.832
-3.376
2.088
-3.2
-3.256
-0.888
-2.624
-2.176
-1
-3.024
-1.464
-1.416
-2
-0.32
-1.816
0.672
-1.176
-2.128
-0.76
-3.064
-2.968
-0.256
-1.112
-1.32
0.376
-2.488
-0.608
-0.648
-2.8
-1.896
-1.008
-0.632
-2.408
-2.64
-1.688
-1.264
-3.92
-1
-1
-2.856
-1.024
-1.976
0.712
-0.76
-0.168
-0.08
-1
-4.376
-2.28
-2.776
-1.368
-1.984
-1.76
-0.6
-1.352
-0.392
1.976
-2.584
-0.52
-1.336
-2.872
-0.016
-0.968
-1.16
0.616
-1.472
-1.224
-2.184
-2.36
-0.368
-1.92
-1.784
-0.512
-3.32
-2.824
-0.344
-2.112
1.752
-1
-3.392
1.688
-3.888
-2.984
2.92
-3.912
-1.136
-2.448
-0.928
-0.28
-3.688
-1.752
-1
-1
-1
-1.296
-3.616
-1.672
-3.424
-2.04
0.616
-2.712
-1.096
-1.24
-6
-1.144
-2.712
-2.432
-1
-3.52
-1.864
-3.656
-2
-1
-3.6
-2.056
-0.424
-0.624
0
-0.12
-3.304
-1.184
-2.864
-0.912
-1.04
-2.976
-2.056
-1.104
-3.392
-0.8
-3.256
-2.296
-0.312
-2.608
-1.56
-2.512
-2.856
1.416
-1.368
-4.36
1.912
-2.776
1.472
-2.512
-3.76
-1.064
-2.936
-4.064
-1
-1.16
0.752
-4.464
-0.304
-1.648
-1.6
-1.344
-1
-1.456
0.816
-0.36
-3.376
-0.264
-2.648
-2.664
1.64
-1
-1.976
-0.976
-1.928
-2.12
-0.664
-3
-1
-2.376
-1
-3.368
-3.456
1.496
-3.792
-2.2
-0.352
-0.912
-1.232
-0.208
-2
-0.112
-1.064
-2.952
1.872
-4.68
2.488
-1
-1.776
1.912
-2.08
-3.104
-3
-3.608
-2.048
-2.32
-2
-0.344
-2.184
-4.264
-1.4
-1.456
-0.896
0.776
-1.008
-1.04
-2.648
-1.544
-0.632
-2.84
-0.4
-1.672
-1.752
1.152
-2.056
-2.08
-0.432
-1
-3.328
-2.152
-4.04
-1
-1.432
-2.808
-1.952
-2
-4.048
1.712
-3.712
0.424
-0.52
-3.424
0
-2.848
-2.864
-0.08
-2.056
-0.576
-2.504
-1.672
0.44
-3.768
-1.632
0.728
-3.56
-0.04
-1
-0.056
1.688
-1.848
-1.8
-1.496
0
0.624
-1.824
-1
-1.488
-2.928
-3.752
-0.368
-2.72
-0.912
-1.224
-2.472
0.488
-2
-2.904
2.936
-2.872
-2.448
-2.68
-2.792
0.488
-2.392
-2.408
-0.6
-2.552
0.008
-0.28
-2.184
-2
-1.248
-0.208
0.352
-1
-1.64
-1.072
-4.904
-1.024
-2.712
-2
0.496
-3.352
-1.792
-0.376
-2.36
0.184
-1.088
-2.512
-1.448
-1.8
-0.944
-1.608
-3.232
-1
-3.68
-1.664
0.744
-2.016
-0.064
-1
-3.616
-0.352
-0.552
-1.544
-1
-3.632
-1.248
-1.072
-2.512
-0.56
-1
-2.624
-1
-3.504
-0.6
0.392
-3.688
-0.056
-3.992
-2
-1.264
-1.456
-1.368
-1
-2.72
-0.328
-1.624
-3.696
0.888
0.04
0.296
-1.384
-3
-1.136
-0.2
-5.232
-0.288
-1.48
-0.904
-1
-2.808
-2.192
-1.424
-2.192
1.56
-3.136
-1.672
-1.616
-4.136
0.04
-0.888
-4
0.872
-1.656
-1.32
0.304
-2.632
-0.136
-3
-2.88
0.976
-2.664
-0.312
0.544
-3.8
-0.752
0.184
-2
-2
-1.8
-2.464
-1.928
-2.832
0.368
-1.64
-3.912
0.224
-1.528
-0.616
-1.16
-3.032
-0.064
0.872
-3.776
-1.32
-0.584
-0.512
-1.304
-3.24
-0.6
-0.208
-4.48
-1.544
-1.816
-2.64
-0.248
-1
-0.784
-1.336
-3.64
0.856
-3.024
-2
-1
-2.88
-0.504
-1.784
-3.264
-1.248
-2.48
-1.816
0
-1.496
-1.104
-1.8
-1
1.784
-1.744
-1.208
0.68
-3.44
-1.808
-2.984
-1.968
0.68
-1.744
-1
0.224
-2.096
-1
-0.264
-2.584
-0.072
-1.464
-2.12
-1.392
-1.688
-3.112
-0.496
-5.8
-2.152
-1.208
-2.776
2.968
-2.96
-1.912
1.728
-2.448
-1.464
-0.44
-0.984
0.248
-3.88
-2.416
0.04
-3
-1
-1.008
0.152
1.04
-1
0.288
-0.48
-4.856
1
-0.904
-1.384
0.424
-1.192
-0.2
-2.424
-1.664
-0.152
-1.704
-2.44
0.584
-1.848
-1.872
0.672
-3.88
-2
-1.552
-1.136
-1
-2.92
-1.024
-3.832
-4.688
0.392
-4.4
-4
0
-2.624
-0.784
0.88
-1.512
-0.608
-1.832
-2.528
-1.32
-3.728
-0.776
-0.352
-0.872
-1.92
0.84
-2.968
-1.936
-3.328
-3.16
0.376
-3.232
1.392
-0.24
-2
-2
-1.024
-1.176
-2.816
-3.72
-2.376
-2.528
-3.352
1.496
-3
-1.928
-1.048
-3.88
-1
0.76
-2.832
2.352
-1.736
-1.624
-1.64
-3.184
0.632
0.52
-2.552
0
-1.352
-3.088
-1.256
-3.792
-1.16
-1.336
-1.744
-1
-2.904
-1.24
-0.872
-3
-1.672
-1
-2.32
-1.736
-1.336
-1.856
-1
-2
-2.216
-1.688
-3.224
-1.496
-1.8
-1.392
-0.104
-2.832
-0.008
-1.96
-2.824
-1.408
-0.816
-2.232
1.6
-2.344
-1.504
-2.152
-4
-2.56
-1.864
-4.464
-0.336
-2.712
-1.28
0.616
-5.712
0.808
-0.144
-6
-2.048
-2.712
-1.576
-1
-1.76
-0.152
-0.328
-2
1.136
-2.56
-2.64
2
-1.376
-0.672
-0.84
-5.304
-3
-1.272
0
-1.16
-2.984
-1.056
-0.688
-1.848
0.6
-2.76
-2.888
-1
-1
0.68
-0.56
-2.144
0.168
-3
-1
-0.544
-2.224
-1
-3.256
-3.76
2.84
-2.92
-1
0.776
-3
-1.208
-2.488
-1.608
1.592
-1
-1.344
-1.016
-2.544
0.224
-2.08
-2.624
0.472
-3.216
-1.664
0.64
-3.64
1.928
-0.048
-1.856
0.4
-0.664
-2.216
-1.264
-2
1.84
0.224
-2.824
-2.008
-0.896
-1.8
0.296
-2.392
-0.976
-1
-1.84
-0.112
-2
-2.936
0.872
-1
1.488
1.824
-2
1.456
-1.68
0.528
0
-2.072
-1.512
-2
-3
0.376
-1.296
-2.504
2.2
-2.152
-1.792
2.72
-3.968
1.88
-0.824
-1
-1.184
-1
-0.56
-1.36
-3
-1.272
-0.696
0.04
0.136
-1.768
0.008
-0.576
-1.48
-1.04
0.136
-1.712
0.856
-1
-0.144
0.808
-2.712
-0.576
-0.8
-2
-0.344
-1.696
-3.296
-0.04
-1.528
0.424
-0.128
-2.672
-2.16
-2.16
-3.264
0.592
-3.824
1.88
-1
-1.944
-1.208
-1.392
0.6
0.752
-2.408
-2.688
0.176
-2.56
-0.952
-1.464
-1.168
0.264
-1.68
-0.456
-0.12
-2.296
-3
-3.92
-1.968
1.952
-3.68
0.664
-0.84
-4.208
0.488
-0.784
-2.352
-1
-2
-0.488
-1.456
-1.816
0.36
-1.936
-1.472
0.92
-1
0.12
-0.072
-4.928
-1.024
-1.784
-1.12
-1
-1.784
-1.528
-0.064
-2
-1.592
-0.088
