-10
-6.928
-10.488
-13.64
-8.848
-12.216
-1.072
-2.872
-1.68
-4.712
-3.912
-8.528
-1.312
-6.6
-5.056
0.088
-0.304
9.624
2.44
-4.56
-13.744
-23.952
-15.84
10.36
-5.28
-10.472
-4.896
-4.992
0.92
0.84
2.84
7.824
-1.88
3.68
-1.944
-2.376
-12.112
-8.512
-6.6
-9.568
-14.376
-17.272
-15.144
-24.8
-20.888
-5.816
-7.528
-7.52
-12.72
-10
-10.752
-4.392
-3.832
-11.72
-4.432
-3.392
-2.288
-4.256
4.96
-7.384
-10.28
-6.424
-8.096
13
-9.288
-8.232
3.128
-0.192
-8.16
1.288
7.632
7.848
-2.456
-3.32
-8.136
-5
0.504
8.704
0.72
-1.464
-25.16
-8.592
-2.32
-15.88
-16.968
1.392
2.376
-2.216
2.8
6.008
9.44
5.248
16.296
-0.2
-10.416
-7.288
-4.912
-13.424
0.4
-13.096
-8.64
-13.176
-8.256
-0.28
-4.456
0.808
-9.04
2.32
-1.2
-1.952
2.464
3.736
2.352
4.6
4.376
-10.952
1.72
-10.184
2.36
-16.256
-11.416
-8.136
-12.656
-10
-14.36
-7.096
-8.856
-5.928
-12.6
-0.176
-9.568
-11.568
0.32
2.36
-7
-11.928
-17.024
-8.936
-15.6
-14.944
-7.568
-18.048
-3.752
-6.08
-5.888
-12.232
5.728
-3.128
-8.36
-12.128
-1.112
-3.016
-12.64
-2.68
0.688
-3.256
0.104
-8.392
3.92
2.488
-7.184
0.776
-20.768
-21.6
-14.48
-6.416
-15.544
-11.016
-11.84
-4.768
3.6
-16.424
6.232
-1
-5.296
-5.504
-4.632
-11.304
-10.32
-2.728
-0.312
-8.64
-20.136
-2.68
-6.464
-14.704
-2.152
-4.528
-2
-5.048
-2.808
4.136
-5.736
3.96
8.952
-1.024
-7.464
-7.544
-3.08
-3.72
0.152
-3.24
-5.296
-3.96
-17.056
-18.896
-1.32
-9.296
-1.32
-3.032
11.432
5.168
-7.784
-9.4
-3.744
-5.296
6.376
-4
-2.08
-1.584
-0.92
-12.168
-8.688
-16.96
2.464
-8.688
0.408
2.696
6.16
10.616
7
-1.68
-8.448
0.12
6.672
-1.072
-2.04
-3.576
-2
-7.176
-10.528
-10.824
-7.96
1.16
-6.304
14.344
-8.056
-8.168
-11.08
19.272
-6.904
5
-0.368
-1.24
-5.512
-11.672
-2.32
-9.192
-6.4
-11.856
1.352
-7.976
-8.688
0.6
-13.128
-5.304
-3.208
-18.168
-3.48
-2.776
0.976
5.792
-14.872
-15.28
-5.408
-12.472
-15.656
-2.456
-8.24
-7.736
-15.016
8.648
-7.952
-11.92
-10.472
-6.064
1.888
-3.752
-8.2
-7
-1.48
5.44
13.896
6.6
-2.56
-1.272
-0.264
2.536
1.84
-10.28
-7.376
-16.784
-11.304
-6.68
-0.976
5
-11.288
6.168
-1.32
-4.192
-5.424
-3.712
1.136
2
4.712
-0.328
-8.136
10.232
-2.04
-7.304
-6.712
-17.68
-21.592
-11.68
-3.832
-10.728
-8.256
-4.736
-18.72
-7.608
-2.104
10.64
-2.208
-4.92
-9.896
-7.28
-12.752
-11.848
-12.2
-4.264
-9.48
2.904
-14.16
-1
-1.68
-7.96
4.84
-1.104
-9.92
-4.904
-5.016
-2.888
3.36
-0.12
5.808
-11.064
5.656
-11.552
2.36
-3.704
-26.184
-10.384
-9.52
-15.6
-14.656
-19.56
0.616
-8.712
4.16
-11.128
-1.152
-7
7.168
1.28
-12.496
-3.024
1.88
-6.72
-10.96
-0.344
-10.728
2.04
-6.376
-14.36
-11.064
-14.616
-15.984
0.208
-10.6
-14.888
8.088
-16.392
13.088
3.84
-7.992
-9.168
-4.888
-5.032
6.32
-8.36
0.12
-0.792
-11.264
-8.16
-10.64
-10.344
-11.288
-12.536
-13.04
-16.296
-5.128
7.152
-2.512
1.2
-11.696
0.96
2.712
-15.84
-3.92
-14.824
-21.456
-7.944
-0.408
-13.44
-9.752
4.264
-1.184
-8.168
-9.44
-8.544
4.152
5.656
-12.56
-4.04
5.344
0.272
-3.328
-6.192
-3
-3.192
-8.904
-22.272
-6.072
0.72
-18.272
-7.664
-1.536
-3.296
0.12
10.808
-10.152
-2.752
-0.672
-7.08
-5.68
-3.448
4.952
9.856
4.44
4.832
-14.384
-11.312
-5.784
-4
-5.488
-8.856
1.344
1.528
-5.16
-2.784
-7.608
4.832
7.208
-2.52
-2.904
-9.76
-3.12
-17.848
-11.92
-7.064
-1.984
-1.128
-2.12
-16.28
-17.584
-4.792
2.432
-4.296
-10
-18.416
-0.984
0.28
2.96
-2.44
1.184
-16.664
8.408
-7.824
0.64
5.848
-1.336
0.832
-0.992
-1.24
9.968
-10.464
-3.112
-5
-4.84
-5.184
-4.528
-3.976
3.416
-0.2
-2.184
13.48
-7.488
-2.584
-12.64
-17.32
-10.872
-6.32
-16.808
-7.6
-22.512
-11.232
-14.328
-14.096
-12.12
3.368
-6.92
-11.68
-10.072
-0.64
-4.864
-8.12
-1.368
-0.768
-5.8
-5.608
1.752
-6.944
-11.92
-13.92
-4.408
-6.456
-11.368
-7.696
-9.4
-14.328
-5.992
-1.304
5.888
-14.4
-4.208
-3.16
-17.632
-17.576
-6.28
-0.344
-8.568
-10.288
-11.712
-23
-10
-2.864
-1.016
-11.816
-5.48
-10.104
-5.304
-4.392
4.888
-2.12
5.776
-6.456
-5.496
-0.264
-2.28
-6.52
-3.472
-6.504
-17.296
-5.08
-1.072
-10.216
-13.168
-9.936
-21.4
-10.992
-1.592
-2.752
-2.352
-2.96
-1.488
4.032
-10.592
2.792
-18.36
-4.904
-6.224
-5.824
-1.36
-15.28
-19.392
-11.744
-20.232
-10.216
-7.92
-4.504
1.976
9.304
5.408
7.4
6.52
-10.504
3.456
-14.936
-5.24
4.624
-3.584
-0.512
-7.16
-5.48
-5.648
-1.12
-9.216
5.928
1.72
3.824
13.704
9.096
3.056
0.88
-0.224
-2.984
13.448
-11.624
-6.2
-8.72
2.48
-21.208
-6.376
-7.84
-1.896
-2.68
-1.32
6.936
-11.76
3.928
-8.304
-7.088
-4.632
5.04
9.792
106.55
-56.496
-43.536
-22.52
-17.584
-7.032
-18.184
-6.216
-1.4
-12.608
-9.792
-15.16
1.056
-1.32
0.32
-9.32
15.344
-4.144
9.92
6.328
3.736
6.664
7.336
0
-3.864
-3.472
-10.008
2.528
-13.8
-3.112
-2.416
-11.176
-2.712
-11
-1.624
-17.904
-2.848
-0.272
12.4
8.288
-3.688
5.008
-1
-2.76
-8.056
-5.968
-8.984
-7.984
-14.88
-5.088
-15.288
-4.496
-7.648
-16.36
-1.112
5.224
-5.936
-8.696
-5.4
-1.976
8.04
-2.784
-8.744
3.72
-2.56
-1.608
-12.416
-4.2
-10.64
-5.552
-13.568
-4.112
2.536
-1.12
-0.808
-12.84
10.656
-1.12
1.36
-0.168
-20.744
-14.088
-11.24
-19.8
-11.032
-7.016
-2.192
-4.264
-14.56
-8.304
-12.056
-18.952
2.808
-14.84
-10.568
-4.456
2.24
-1.712
1.48
-5.336
-9.92
-13.264
-5.12
-8.72
-5.448
-5.736
-0.512
-8.176
-7
2.368
1.608
-3.792
-0.96
6.16
-8.328
6.128
-1.84
-10.424
10.04
3
6.304
5.208
4.272
-4.44
-6.736
-0.592
-15.248
-9.416
-17.92
-8.256
-0.624
-1.776
-3
-2.8
-6.392
-3.936
-15.888
9.92
-0.68
9
-5.096
-6.816
-6.464
-9.52
8.952
-3.88
-9.76
-0.472
-0.84
2.864
-12.688
-11.64
-7.712
3.12
-1.96
-10.568
-5.384
-6.24
-14
-9.288
-14.232
-11.288
-3.848
-18.92
-6.864
-18.28
-6.824
-8.728
-9.16
-2.672
-7.816
3.136
1.424
-9.76
2.072
2.16
-0.728
-1.352
3.4
-10.92
-3.784
-7.208
-6.632
-1.2
-0.752
-2.744
-1.904
2.352
-2.88
-13.536
-5.072
-2.664
-1
-3.96
6.272
5.776
4.88
1.488
12.52
-8.064
6.936
-3.384
5.896
-2.52
7
-2
-11.648
-5.224
-9.2
-15.688
-13.072
-9.472
-7.368
-15.24
-2.248
0.096
3.408
-0.008
2.68
9.504
-18.328
-2.688
-6.784
-7.96
-6.328
-7.136
-7
-15.128
-2.92
-5.776
-5.896
-6.512
-5.272
-0.2
-5.816
-2.824
4.976
-1.376
-5.52
5.008
6.128
-6.904
4.968
1.04
-1.256
13.296
-1.88
8.272
1.72
2.68
-4.328
0.568
1.904
-4.28
6.744
-3.656
-3.408
4.264
11.2
4.432
9.416
0.944
-10.976
0.4
-9.56
-6.816
-8.712
-7.32
-0.28
-8.032
-10.744
-2.76
-17.64
-16.52
-12.456
-4.304
2.336
1.136
4.16
22.584
3.992
5.48
-7.664
6
2.76
-9.384
-5.296
-8.456
-21.4
-20.408
-7.664
-10.152
-0.272
-10.76
-17.056
-5.816
-13.368
-10.656
-10.84
-11.552
-11.792
4.464
-29.36
-2.92
-4.992
-10.504
-5.896
-6.912
-5.4
-13.48
-16.296
-13.656
-1
-4.2
-1.56
-18.248
8.584
2.688
-9.36
2.656
-14.224
-3.472
4.744
-5.16
0.096
2.904
-2.616
-11.768
-17.4
-1.912
-11.024
-7.656
2.536
-1.8
2.312
-0.536
9.72
7
3.88
-9.688
-6.152
3.432
0.016
-1.6
-16.568
-17.88
-14.928
-14.784
-9.6
-31.336
-20.976
-6.584
2.872
-4.96
-8.024
-4.456
-0.488
-1.168
5.8
8
11.872
0.024
5.672
-4.32
-11.992
-4.384
5.888
-12
-1
-10.744
-6.592
-12.104
-13.384
-11.48
-14.528
-3.992
-10.112
9.832
12.76
5.472
-3.624
3
-5.76
-16.8
-8
-0.584
-8.72
1.984
-16.76
-11.208
-13.096
-1.816
-0.216
-5
7.952
-4.504
-4.88
-3.92
-6.28
7.656
-3.856
-2.96
-7.728
-0.56
-0.312
-6.432
-0.576
6.808
-4
-11.616
-4.344
-7.88
-21.04
-7.08
-1.152
-2.64
-16.152
4.728
-1.52
-2.496
3.456
3.752
6.64
11.48
0.16
-5.552
-7.864
-20.68
0.96
-15.944
-6.552
-2.44
-8.632
-14
-2
-3.928
6.344
-2.608
5.48
7.56
1.144
-7.104
-1
-8.4
-12.912
-5.224
-18.184
-21.488
-14.48
-20.936
-9.08
-13.32
11.432
-1.64
-6.168
-2.44
10.824
2.536
8.8
5.792
5.488
1.016
-5.736
1.2
-3.688
4
0.376
-3.168
-5.24
-9.992
-5.88
-8.976
-9.432
-14.44
-11.144
-0.752
-8
-1.44
6.52
-3.736
8.544
-5.624
-3.376
-3.2
-5.592
-6.088
3.488
-5.088
0.08
-19.664
-5.896
-19.76
-3.416
-15.72
-16.64
0.12
-14.656
-5.912
-0.04
-1.632
-0.504
-0.432
-6.368
-11.56
-9.08
-8.872
-7.296
-1
-17.8
-25.544
-15.376
-2.392
3.856
-9.88
-22.296
-2
1.816
6.464
-1.16
3.376
-8.12
2.336
1.36
-3.56
-4.432
1
-8.28
-13.712
-7.92
-4.192
-13.56
-21.808
-9.192
-8
0.24
-2.152
-7.424
-6.768
1.68
-5
6.296
-2.92
-7.136
4.16
-9.728
-0.24
3.872
-6.328
-5.4
-13.304
-9.24
-2.272
-1.088
-13.16
-7.952
-4.056
4.648
-4.872
7
12.504
0.48
0.784
6.824
-8.72
5.248
0.144
-1.168
-2.256
-5.08
-9.912
-5.792
2.296
-4.256
-6.52
-14.744
-6.032
-6.04
2.336
1.2
1.872
-7.44
1.216
-5.48
5.2
-3.896
-11.496
-2.632
3.144
-14.68
-6.136
-12.68
-10.216
4.808
-4.4
-5.424
0.976
13.616
4.856
2.24
20.328
-2.536
-11.792
-3.744
-5.36
-7.552
3.736
-8.456
-9.448
-5.4
-4.184
-1.168
-11.416
-3.12
-4.44
-23.32
-2.448
-11.856
-2.032
3.04
-2.952
-0.824
-2.864
-9.72
-5.92
-16.32
-10.496
-4.496
-6.928
-2.12
-5.352
-3.656
-1.744
-6.76
5.2
-7.936
-5.208
-1
10.944
1.76
-3.472
-6.728
-3
-7.768
4.56
5.752
-7.864
-2.696
1.112
-5.52
-12.68
-5.312
5.336
6.968
-9.64
-1.08
-1.72
-9.888
2.568
14
-1.144
10.464
-1.144
-10.192
-1.96
-7.168
-2.648
-1.08
-14.296
-16.6
-12.696
-15.64
-0.144
-1.672
-12.96
-11.624
-10.504
-10.136
0.616
-3.92
7.912
2.664
3.896
-6.696
-5.8
7.256
1.376
4.216
-3.608
-14.2
-24.44
-20.68
-6.248
0.104
-13.04
-10.008
-10.656
10.776
-2.152
-10.8
-6.68
11.76
13.768
-11.44
3.72
5.248
-2.864
4.824
5.256
-4
-10.448
-1.528
-3.368
-1
-7.24
-10.056
-9.888
-7.784
-1.336
-0.52
-0.208
-7.568
3.64
-13
-6.2
1.992
-3.648
3.096
-5.624
-6.12
-8.88
-12.28
-11.504
-8.728
-2.8
-4.632
1.48
-14.232
-2
0.52
9.544
5.448
8.888
-8.808
-4.96
-7.464
4.536
1.104
-8.904
-8.4
-8.16
-6.832
-0.144
-1.512
-9.92
5.08
-2.376
-2.072
9.272
-3.4
-3.304
2.312
-2.936
-14.896
-3.16
-2.44
-5.272
-7.104
-4.304
-6.84
-4.64
-4.896
-10.816
-8
-13.12
2.088
-6.848
-2.384
10.288
-5.6
-6.736
10.136
5.576
-1.952
-4
2.28
-3.768
-2.136
-9.424
-14.08
-9.376
-1.664
-10.24
1.84
-1.28
-3.472
-10.456
-10.872
-5.968
5.32
1.392
-5.816
7.728
-12.736
-5.84
1.952
-11.008
15.104
-5.672
-7.4
-6.496
0.408
0.904
-1.392
-9.56
-3.048
-3.64
0.248
2.32
-3
-2.36
5.208
-16.768
-16.952
-6.08
-2.776
-2.064
-7.168
-3.344
-7.72
-14.92
-4.352
-5.304
-4.648
4.4
-2.864
-2.504
-2.528
-0.304
-0.32
-0.752
7.04
1.296
9.312
-9.2
-1.928
-4.072
-4.88
-9.216
-7.36
-15.488
-13.568
-17.304
-0.632
-8.52
-1.672
-11.544
-4.016
-12.416
-5.2
1.336
-13.088
-14.904
-16.416
-14.8
-8.328
-1
-1.16
-12.904
-4.04
-5.336
-16.888
-6.688
-1.184
-9.32
-15.736
-4.168
-5.816
-0.344
-3.44
5.392
5.624
-2.632
-0.736
-17
-9.608
-1.456
2.832
-3.04
-4.24
-9.736
-5.64
-24.792
-7.088
-1.84
-11.36
-0.864
-5.12
1.64
0.2
-5.976
4.232
6.296
9.016
-2.88
-3.96
-11.144
1.52
-13.184
-4
13.136
-4.096
-11.272
-8.696
5.56
3.712
-2.008
-2.616
1.112
-9.72
12.192
-1.792
-3.256
-6.936
-1.56
0.608
-3.184
-7.912
-16.8
-16.52
-7.128
-10.168
-9.48
-4.608
-2.4
-1.248
-2.296
-14.184
1.136
2.92
19.56
-12.072
4.584
-11.584
-8.2
-4.904
0.88
3
-3.592
1.6
-0.744
-13.048
1.744
-21.208
4.6
-1.208
-5.488
-8.736
-4.96
-5.2
-1.48
-5.024
-0.664
1.04
-14.24
1.44
-1.904
-1.376
-0.336
4.24
-6.856
-4.88
3.856
-10.352
-14.2
-3.176
-1.864
-4.376
-10.44
11.84
-5.04
0.28
9.624
-7.552
-6.2
5.816
-3.048
-6.28
-5.712
-11.84
-4.56
-24.72
-0.304
-4.584
-16.12
2.256
-6.12
-10.88
-6.896
-3.8
4.152
4.912
89.2
-24.528
-40.72
-28.744
-11.344
-7.08
-0.24
-0.8
-5
-1.04
1.384
-3.928
5.4
-9.032
-3
1.792
-8.144
-2
-0.968
1.872
-6.12
-8.248
-7.84
-1.728
-6.224
-10.016
-6.272
-12.08
-10.504
-3.296
-15.424
1.712
-1
-16.76
-12.616
-10.848
-12.504
-3.56
5.408
1.008
5.928
9.184
-0.04
-2.528
1.936
-6.992
-7.328
-18.6
-4.552
-11.368
-14.504
-2
-11.12
-3.032
-0.504
-1.728
-8
7.8
5.992
5.52
-1
-4.528
-9.16
-2.808
2.712
13.408
5.896
1.8
-9.904
-2.568
-4.992
-6.152
7.76
-6.968
5.84
-9.192
-13.336
5.72
13.792
-2.536
-9.608
3.256
-3.6
5.76
2.04
-0.72
-4.696
-10.28
-13.504
-6.488
-8.136
-8.472
-1.72
-3.992
6.024
8.664
6.784
9.92
-0.16
1.24
7.624
14
-4.08
-0.856
-7.472
-10.424
-9.96
-8.6
-9.296
-24.56
-8.952
-9.92
-17
-4.56
-10.552
3.096
-1.128
-9.12
-3.128
-2.232
1.296
-12.544
-23
-9.84
-13.752
-10.68
-1.264
-4.08
-6.688
-6.688
-10
-10.744
-4.2
-1.96
-7.712
-6.944
-8.048
15
14.296
-7
6.552
9
-3.32
3
-0.36
5.848
-4.496
-12.64
-14.888
-14.688
-6.032
-12.576
-3.52
-2
-4.16
-2.056
-1.288
-1
2.952
-3.752
0.848
-8.192
-1.8
-4.272
-8.672
-10.84
-2.752
-3.52
-19.944
-16.328
-8.736
-10.656
1.24
-9.536
-6.184
-4.184
-8.472
-6.92
8.032
9.888
18.92
-16.264
-20.4
0.48
-1.664
-6.44
-4.08
-2.6
-7.928
-3.608
-1.496
-5.736
-1
-0.552
-10.776
-4.416
-1.872
1.36
0.936
-8.712
5.552
5
1.64
2.792
-0.232
2.216
0.704
0.4
-9.624
12.016
-6.456
-2.856
-7.36
4.256
8.056
6.84
-13.16
-12.16
-7.208
-10.688
2.928
-5.144
-3.48
-18.472
6.056
0.888
-7.688
0.72
-5.592
-6.368
1.016
-8.344
3.4
-4.944
-6.608
-10.928
-9.416
-19.92
-4.008
6.616
11.936
18.392
-11.28
1.72
3.936
-8.552
-5.728
-8.48
-7.312
-1.832
-4.96
-8.096
9.72
8.136
5.248
-9.816
2.264
7.8
12.456
10.248
-2.72
-0.952
-0.04
-3.736
-5.728
-8.264
-10.968
-16.28
-13.456
-8.136
-4.392
-4.832
-3.88
-8.816
-4.68
-6.344
-5.56
-5.16
-1.536
-2.576
-3.944
-4.192
-3
-3.192
-12.368
-4.568
-0.616
-11.52
-14.44
-11.032
-20.232
-9.408
-14
-7.248
-14.88
-6.008
-15.64
-1.24
-1.088
-5.184
-4.272
-1
-12.44
-8.072
-10.496
-13.208
-4.344
-23.4
-6.768
-29.224
-17.496
-20.488
-12.92
-13.68
-2.536
-1.672
2.792
-4.04
-0.56
-8.76
-6.76
-5.536
8.84
-14.744
-3.92
-4.744
-21.096
-7.72
-3
-9.816
-10.832
-4.632
-10.2
-12.76
-13.448
-17.984
-5.08
-4.04
-6.312
1.776
-3.296
-2.16
12.32
3.504
-2.712
4.856
4.64
-6.72
-6.672
-13.408
9.456
-3.688
-1.52
-0.488
7.104
-6.992
-12.584
-2.6
-1.2
6.048
-0.256
-0.92
-14.04
-7.224
-9.744
-1.144
-6.712
-10.08
-8.024
-3.472
-4.52
2.824
-8.6
-7.52
0.152
-10.256
6.072
-13.32
5
4.752
-9.928
-4.248
-4.8
-1.912
-8.896
-3.944
2.896
-9
-9.208
-6.816
0.24
-7.696
-4.08
-9.768
-4.504
-9.152
-0.056
-2.76
-0.024
6.92
-5.36
10.104
-1.08
-7.424
-2.712
-3.328
-4.432
1
-12.52
-10.464
-12
-10.736
2.36
-4.56
-0.368
-6.536
-9.112
-3.84
-1.472
-7.488
-6.856
-0.28
1.8
-11.216
-8.16
-10.728
-5.176
0.72
-5.152
-3.504
-11.272
-3.608
-10
-3.968
-6.632
-4.656
-9.784
-5.48
-6.856
-4.176
-3.176
-10.208
-12.84
-9.176
-8.24
-11.24
-18.952
-9.6
-1.192
-5.064
-8.552
-5.896
4.56
-4.08
-6.44
5.696
6.352
-8.4
-1.824
1.016
-3.736
-11.184
-2.48
-9.688
-6.472
-9.92
-0.688
-9.12
-4.928
-28.568
-15.64
-6.712
-15.8
-0.488
-8.784
-6.376
-9.624
-9.48
-10.632
-0.616
-5.488
2.136
10.4
-16.536
-20.696
-10.376
-3
4.16
-8.232
-9.424
-4.888
-20.68
-12.2
-2.408
-7.176
-4.208
-1
-0.28
-0.424
-3.08
-1.928
5.144
10.64
6.2
-5.936
-7.408
-13.512
-1.8
0.48
-4.896
-15.608
-10.016
3.44
-10.616
-2.32
-5.184
4.144
1.48
4.472
0.872
10.392
0.64
-5.76
-6.864
-11.224
-5.68
-4.168
-2.32
-8.728
-4.576
-17.656
-13.472
-5
5.192
-12.232
-15.568
-9.464
8.76
9.288
-3.688
-3.76
-3.16
-8.88
1.528
-7.184
-0.76
2.984
-1.04
-14.752
-4.632
-14.824
-0.912
-12.24
-1.064
-12.16
2.376
-11.024
-8.6
-4.224
2.888
2.56
-2.568
-3.24
-6.784
-7.712
-7
-11.376
-3.68
-13.096
-8
-16.88
-0.872
-13.32
-16.744
-13.92
-9.704
-5.224
-8.92
14.92
-0.72
5.568
-2
-8.8
-0.792
-6.536
1.28
2.12
1.36
3.192
-14.248
-8.192
-10.184
-13.56
4.128
-7.928
5.976
15.416
-13.76
7.328
-3.92
8.584
8.192
3.16
-1.96
9.792
-9.48
3.032
9.8
-7.832
5.52
2.648
1.792
-3.32
-2.552
-2.192
8.968
-1.064
-9.16
4.232
2.768
0.088
7.912
-3.72
-2.368
-4.584
-10.144
-0.024
-3.16
-2.256
-9.656
-3.112
-9.016
-2.8
-11.24
-6
3.776
-3.896
9.24
0
-1.952
7.344
-6
-5.6
-0.968
-8.136
-7.64
-12.528
-7.16
-12.272
-8.376
-14.96
-17.272
-12.16
-15.384
-9.424
-4.52
-0.288
-13
-5.616
-0.576
-6.28
-0.888
-7.44
1.592
-2.984
4.384
-4.296
-13.88
-2.248
-9.728
-3.736
-3.672
-15.12
-14.088
-1.024
2.28
2.088
-6.84
9.976
11.272
2.352
3.672
16.2
3
14.224
11.28
-4.88
-0.4
-4.728
-11
-2.248
-12.368
-7.6
-6.168
-13.568
-10.008
-13.976
-10.84
-5.808
-1.984
-3.808
6.992
6.56
1.544
-14.208
-6.216
-7.96
-4
-18.624
-9.48
-13.264
-7.04
-14.36
3.136
-9.28
-0.568
-5.184
-15.52
-3.288
2.784
2.264
-1.928
8.84
6.648
-9.272
-6.168
7.872
-1.48
-5.488
-13.192
6.424
-19.448
-6.8
-5.352
-7.528
9.184
12.296
-3.48
0.568
-11.04
-4.744
4.904
-15.16
-4
-8.816
-10.656
-7.912
-3.64
-11.472
-17.176
-9.464
-12.096
0.28
-17.528
-4.12
-6.624
-4.768
-11
-19.328
12.856
-1.944
-20.84
-6.12
-10.384
-4.272
2.872
4.304
4.52
-5.592
-7.632
-15.456
-1.976
-15.88
-7.16
-22.08
-6.328
1.848
-9.08
-2.768
3.28
-2.944
8.952
5
-7.76
-3.48
-16.84
-0.648
-6.52
-8.392
5.336
0.4
-12.112
-14.44
-11.608
8.488
-8.36
-12.392
0.68
-4.912
11.608
-4.456
-0.736
0.24
6.928
-2.952
-6.584
-2.696
1
-7.736
-12.592
-4.656
-16.512
-15.84
-0.928
-8.504
-13.088
-5.368
-15.6
11.376
-3.328
8.12
12.616
0.2
-6.424
-9.064
-1.192
-4.792
-14.2
-4.872
-17.768
-20.744
-11.056
-3.8
3.24
-11.984
-2.384
8.552
2.2
-2.824
2.584
16.112
3.672
-3.64
-9.072
1.408
-21.736
6.704
6.8
-0.176
-18.952
5.944
0.56
-8.04
-8.776
5.336
5.496
-2.656
2.8
-9.112
6.568
5.768
4.416
-7.4
-6.552
-12.192
2.08
-8.488
-1.6
-1.792
4.888
-14.104
-9.072
-10.8
-12.736
0.248
-0.752
-8.312
-2.52
-8.568
-3.968
3.888
1.28
3.8
18.088
1.832
12.112
2.936
-2.92
5.624
-10.232
-2.104
-3.376
-10.32
-7.16
6.384
-5.912
-3.528
-16.36
-7
-2.304
-16.96
-7.016
-3.88
-3.192
6.704
0.808
0.616
3
-1.672
-2.576
-5.44
-19.736
-8.12
-12.832
-13.984
-0.76
-7.048
-5.2
4.28
-1.576
4.488
3.28
10.28
5.144
-1
1.864
-7.384
4.44
-6.952
-3.112
-6.728
-6.392
-3
-2.512
-5.816
-14.248
-2.096
-3.96
-5.904
14.896
6.344
-1.312
-10.68
-0.552
-6.536
-3.352
-10.488
4.76
-12.872
-1.336
-3.448
-19.224
-14.04
-10.832
-17.44
-1.304
-15.48
-19
-0.592
-3.504
-6.648
-5.936
1.04
-12.312
-10.512
0.84
-14
-12.6
6.28
-13.904
-1.264
-11.568
-15.88
9.488
-9.488
-10.416
1.936
-4.92
-4.552
9.84
4.952
-1.656
-0.8
0.888
-8.264
-2.584
-18.88
4.44
-7.784
-21.424
-13.112
-13.904
-10.48
-14.824
-4.168
-5.64
-5.824
0.6
-13.16
4.496
-0.104
18.648
48.56
-45.136
-25.408
-16.96
-9.512
-3.4
-11.24
-2.896
-3.168
-6.992
-10.08
-0.144
-6.408
-5.552
-1.448
-14.76
-6.904
6.744
4.088
-0.888
-3
-0.456
-1
0.616
-12.256
-7.72
-2.504
-9.12
-2.672
-12.232
-3
-18.088
-8.904
-0.144
-10.696
-3.16
-3.592
2.04
0.928
6.344
3.68
-6.392
-6.544
-2.88
-3.688
6.76
-6.376
-7.896
-13.32
0.264
-9.6
-15.928
-9.392
-7.064
1.984
-4.6
-1.272
7
9.656
-0.96
9.88
-3.784
-5.752
0.592
-7.688
-9.72
-13.272
-10.968
-2.704
-13.848
-20.32
-11.256
8.744
1.32
7.096
-4.12
-4.504
0.792
-5.656
12.224
4
-2.552
-6.992
-2.072
-0.552
-1
-2.88
-5.68
-10.704
-4.344
-16.84
-16.28
1.616
-4.928
-10.216
-8.32
-10.48
-7.272
-8.68
-15.32
-5.04
-2.264
-0.088
-3.448
-11.592
-9.4
-7.056
-3.392
-9
-16.296
-14.96
-7.552
-6.896
-7
-18.52
3.2
-5.72
1.408
-4.12
-1.272
5.64
2.944
-2.824
-10.248
-3.56
-11.04
-6.608
4.528
-8.224
0.768
-7.6
-15.72
-8.792
5.552
-12.024
3.76
-13.56
-3.68
16.16
2.984
-10.76
-3.984
8.248
-4.152
4.168
-1.2
-3.272
-14.992
-7.672
-17.44
-0.76
-2.536
-11.136
-6.232
2.088
5
-23.28
-0.232
-1.568
5
7.16
-1.68
-2.336
-9.376
-1.8
-4.76
-0.672
2.032
-16.736
-11.656
-4.76
-17.68
-4.816
-0.904
5.472
-4.96
6.992
1.672
16.648
-3.368
5.6
-6.52
-7.848
-3.312
-10.784
-5.32
-9.88
-21.928
-6.496
-3.416
-9.4
-3
-12.536
-7.528
-8.976
-9.36
1.84
-1.16
0.744
0.888
-0.96
-2.288
0.88
-4.608
-6
2.4
-5.208
-4
-4.192
-17.328
-2.44
-8.44
2.736
-9.84
-7
-5.12
-4.64
-11.784
7.76
1
3.68
-15.792
3.408
-1.584
-2.192
12.8
2.896
0.704
-7.952
-5.448
6
0.056
4.392
20.672
-3.792
-6.2
0.768
-4.384
-0.096
1.096
-4.56
3.952
-6.76
-3.52
-4.088
-3.32
-14.312
-10.408
-4.648
-13.464
-5.84
-1.392
-10.936
-9
-7.24
-9.8
5.176
-9.336
6.28
12.952
12.12
13.032
-1.28
13.264
1.696
0.36
8.968
-14.632
-6.152
-9.944
-6.44
-9.024
2.16
-7.664
-1.136
-3.6
-13.272
2.136
-6.712
-4.424
2
-7.24
-1.096
-11.544
-14.384
2.16
-1
-11.352
-8.16
-14.752
-11.2
-12.696
-16.152
-10.744
-6.672
-0.4
-15.856
-1.576
2.864
-2.528
1.6
-6.056
-5.672
-13.376
-11.848
-9.4
-11.24
-14.224
-18.464
-6.744
-13.16
-15.416
-3.392
-7.84
-2.264
-0.2
-10
-4
1.824
-9.432
-1.04
4.224
-2.888
-19.336
-20.888
-23
-14.088
-20.512
-12.96
-10.664
-4
-1.176
-3.008
7.912
-8.592
7.72
10.504
-7.584
1.864
-7.648
0.32
-19.912
-11.024
-10.024
-6.288
1.56
0.648
-8.08
-19.904
-4.68
-12.04
-11.592
-3.528
-8.984
-11.76
-11.2
-5.536
6.216
3.976
8.544
-9.44
4.336
11.064
6.6
-14.616
-4.56
-15.208
-15
-0.328
-5.184
-16.88
-9.424
-2.992
1.784
-2.976
-9.04
-16.256
-8.312
-3.736
-6.728
5.4
-7.544
4.44
-8.496
-9.968
-15.88
-5.088
1.368
-7.184
1.84
1.24
-5.624
1.248
-4.424
-12.304
-8.96
2.088
-0.064
7.592
-4.272
3.28
-21.968
-12.992
2.176
-16.328
-1
-0.328
8.176
-6.288
-16.656
-2.96
-9.336
-20.648
-18.384
-13.68
-5.72
-6.944
-10.664
5.76
7.672
-9.36
-13.072
-15.872
-9.864
2.208
0.84
-0.936
7.384
7.272
-18.264
-2.6
-2.224
-6.256
-2.752
-8.568
-1
7.56
7.216
8.584
-0.424
3.76
5.176
11.416
-4.76
-7.592
-4.48
-6.968
0.016
-3.32
-16.432
-7.84
1.336
-15.648
-1.736
0.2
-3.4
-0.2
-0.936
-4.248
-3.816
1.64
3.56
3.112
-11.464
2.008
-2.24
-0.28
-5.688
8.76
-11.28
-5.8
-6.336
4.192
0.376
-1.624
-2.08
-4.632
-5.072
-5.928
-1.864
-5.2
-9.144
-8.784
-2.208
-3.04
-13.96
-21.224
-13.36
-7.032
-12.84
-4.28
-10.152
-10.064
-5.552
-5.736
-10.48
-4.68
5.912
-11.64
3.144
-11.88
-8.176
3.656
-3.52
-6.256
8.6
-1.48
-1.48
-5.056
-8.088
-9.04
0.56
5.912
4.344
-5.088
-3.32
0.016
-5.376
-2.752
-5.776
6.76
-17.272
-4.384
-1.344
-4.016
7.84
-8.88
-2.984
-6
-21.856
1
-9.144
-1.712
-7.272
-5.728
-5.4
2.152
-3.688
3.384
-2.456
-0.72
-1.392
-2.152
-7.752
-6.032
-3.6
-3.872
-4.344
-10.64
-7.528
6.52
-6.976
4.496
-8.648
5.784
3
-2.304
4.632
-2.12
4.08
1.92
0.512
4.288
-1.904
-5.784
-7.64
-17.104
-5.776
-4.816
0.36
-12.72
5.36
-5.84
-5.064
-1.576
-0.64
2.168
-2.232
-4.696
4.48
6.6
-3
5.048
-3.44
-7.328
-12
-12.568
-3.736
-11.464
-10.848
-4.76
-7.72
-10.024
1.952
3.288
9.88
-10.328
3.864
-0.584
-2.056
0.44
-8.592
3.352
1.52
-15.104
1.4
-3.592
-7.4
-2.696
-0.704
-6.12
-0.112
1.464
-19.904
-16.936
-10.84
-22.056
-12.36
9.52
2.912
11.64
-1.472
7.352
-13.856
6.416
-3.48
-7.096
-0.44
-1.296
-8.752
8.2
-9.72
-3.104
5.16
2.968
-2.2
-3.056
-11.552
1.504
8.04
-8.4
0.704
-0.744
-3.056
-17.584
-2.04
11
-14.072
-9.64
-11.32
3.52
-2.768
-9.568
-10.384
-0.336
-1
-6.76
-2.248
2.72
7.656
11
-0.984
5.984
-6.304
-14
-12.88
-11.832
-2.032
-3.256
-12.36
-11.64
-23.752
-13.184
-7.136
1.824
-7.72
9.88
-12.16
-0.416
1.304
4.6
23.784
-1
-4.84
0.608
-7.88
-8.664
-10.32
1.912
5.848
-6.4
-11.176
-3.552
-7.296
-9.232
-15.52
-1.84
4.904
-6.488
12.208
-0.52
-4.248
1.976
2.344
-2.352
-5.4
1.032
3.56
-3.84
-8.184
-11
-2.192
-4.96
8.352
0.352
-1.32
13.072
1
4.808
-3.776
6.2
3
2.76
-7.96
-2.368
0.88
-10.304
-19.296
-1.992
-13.136
-17.2
-20.648
-6.304
-4.976
-8.456
-9.52
-6.896
1.552
-9.856
-5.712
8.44
-1.128
-1.64
-11.76
-5.544
-2.96
-6.216
-11.84
-8.648
2.32
-2.48
1.864
-10.624
0.448
-7.248
-1.4
-12.088
-3.688
-3.56
-5.856
8.76
11.768
1.912
-4.656
-16.84
-24.84
-3
4.112
-14.784
-16.664
-6.8
-7.024
-12.304
-1.672
-3.136
-7.08
-5.808
-4.424
-0.328
2.144
4
-4.576
-7.424
-1.288
-21.504
-11
-2.592
-6.664
-18.92
-5.408
-2.52
-16
-8.272
-8.856
-9.08
2.36
-4.856
-7.16
-14.096
1.944
15.08
-5.976
-12.104
-2.064
0.392
-10.6
2.288
-6.264
-18.344
-8.04
-0.28
-4.392
-8.36
-7.08
-7.312
-14.72
-22.472
1.552
-9.472
-7.768
-6.28
9.36
-1.016
-6.616
-1.896
3.6
0.712
-6.072
-7.216
-17.112
-7.8
-12.656
-9.048
-10.104
-13.552
-1.64
-7.624
-2.624
-7.104
-12.16
0.44
10.856
2.568
-13
-0.504
-13.88
-16.344
-8.784
-6.656
2.944
-9.96
-8.816
-16.088
-10.928
-3.312
3
4
-2.392
-3.464
-8.336
-13.24
-3.664
8.976
-7
-1.384
9.52
-3.744
-0.056
-6.64
-1.552
-5.48
-8.104
-17.424
-3.896
-9.656
-7.4
-4.784
-0.248
4.408
7.792
-10.2
6.608
-5.52
-14.048
-4.992
-13.12
2.416
-6.088
-8.448
1.376
-8.68
1.456
-2.776
-4.272
10.136
-1.48
-7.456
-5.704
-1
0.592
8.04
7.424
-2.712
-10.576
8.568
5
-3.24
-5.48
0.712
-11.04
-2.68
-2.272
-4.28
4.992
0.024
-2.64
0.136
4.512
7.4
8.392
-0.24
9.84
3.184
3.872
-8.736
0.84
3.968
4.608
-7.624
-24.2
-2.4
-5.712
-10.184
-12.408
-5.04
-1.88
-3.464
1.144
8.576
1.528
-7.68
-2.36
-3.24
-7.704
-7.512
-13.04
-11.968
-3.208
-13.848
-15.76
-8.28
-11.584
-5.096
-17.392
-9
-18.4
-13.552
-18.968
-8.176
1.432
-3.84
-11.816
2.192
-2.728
-1.832
-5.8
3.432
-4.952
5.976
-5.432
-0.52
-7.832
-16.976
-11.36
-4.936
-7.12
-5.368
-5.576
-6.528
-11.76
-9.2
-0.24
3.656
-5.72
-5.336
-2
-6.448
-1.128
5.016
-5.224
1.88
-4.744
-16.304
-12.688
-7.72
-16.24
-0.68
0.592
-2
-2.536
-7.32
100.34
-33.032
-30
-20.224
-8
-9.392
-14.312
-10.224
-16.04
-18.44
-4.88
-4.176
4.24
-4.536
0.12
-5.968
-5.632
-5.576
-0.36
0.4
-2.496
-8.232
0.68
-10.104
1.56
-6.312
8.568
-6.808
-7
14
-11.52
-7.616
-7.144
0.576
-10.88
0.152
0.68
10.08
2.704
-4.52
6.392
1.968
0.76
-2.672
-4.44
2.072
9.344
1.088
-6.68
1.72
-16.872
4.496
-6.792
-10.736
-18
-6.224
-1.336
-0.72
-0.904
4.6
1.048
-6.752
3.096
-12.896
-6.36
-13.096
-14.328
-7.24
-11.512
-18.4
-5.096
-6.936
-2.192
-10.216
7.4
-0.416
-8.416
-4.432
-4.832
1
13.656
4.448
-2.16
7.224
-1.64
-2.504
3.416
4.352
-5.008
-5.44
-1.36
-14.952
-2.928
-3.432
0.04
-6.176
-8.84
0.32
-4.816
8.4
5.776
3.368
-8.048
-12.448
5.2
-7.224
-8.656
-9.904
-8.128
-9.36
5.76
-2.704
-2.4
-16.296
0.04
-15.872
-2.352
-11.76
0.912
-6.76
-9.472
-3.68
2.424
-1.488
-2.96
-1.824
1.28
-11.368
-16
-10.2
-4.392
-6.832
1.048
-1.992
-1.08
-10.736
-3.816
-0.976
-1
-0.68
1.392
7.24
2.632
-4.392
-2.12
1.272
-1.24
-3.688
-0.848
-9.36
-3.192
-16.568
-11.688
0.52
-12
1.424
-7.48
-13.104
8.768
11.64
8.728
1.96
-14.848
0.136
0.24
-13.672
5.968
-11.104
-15.592
-3.92
-10.088
-7.872
-1.68
-7.528
-10.76
2.968
5.608
-7.312
1.544
-0.6
-3.256
15.408
-2.16
-8.136
2.88
-11.68
-5.496
5.496
-6.216
-6.04
-13.192
-21.104
-9.64
1.488
-20.72
-10
-4.808
-1.384
1.336
2.64
3.544
-7.44
-4.304
1.016
4.2
-3.656
1.968
0.472
-6.184
-8.28
-9.192
-1.112
4.896
-13.8
1.8
4.488
-2.288
-2.856
-13.416
3.36
-12.648
4.456
14.096
-1.624
3.36
-4.92
-10.648
-4.488
-10.592
-10.6
-5.056
-14.744
1.696
0.128
1.88
6.992
2.064
-13.968
4.584
-1.8
0.848
7.224
3.656
-2.096
-2.04
-3.208
-6.4
-2.608
2.928
-6.28
-10.568
-13.656
-10.592
8.536
4.4
11
4.248
14.056
10.928
10.4
14.384
8.232
2.024
-0.856
-8.56
1.048
6.112
-20.696
-10.168
-20
-14.296
-12.072
-7.024
-2.304
-16.44
1.312
-5.736
-10.288
0.992
6
-8.904
0.808
2.128
-10.92
-16.4
-2.272
-1.368
-2.848
1.68
-6.48
-7
-4.36
-5.624
-7.36
-8.56
-18.072
-7.608
-10.32
-5.968
-8.68
6.936
4.056
1.648
-9.152
-10.8
-12.248
-2.632
-5.592
-20.256
-15
-9.68
-9.28
-16.84
-9.272
-11.64
-14.808
-4.984
-7.24
-2.768
-9.52
-2.776
-10.792
-19.72
-7.888
4.32
-0.544
-4.584
1.608
-5.872
-10
-17.688
-9.52
-8.176
-9.144
10.12
-13.312
-13.304
-9.784
0.664
21.72
-11.128
-6.664
6.784
-2.568
-9.08
-5.68
-11.056
1
-12.376
-2.2
-3.776
-14
-7.464
-6.208
-6
-2.296
4.088
1.232
-6.128
11.6
9.448
6.64
8.904
-1
8.04
1.72
-6.464
4.312
6.36
-0.36
2.32
3.592
-10.68
-3.392
-2.84
-1.784
-8.064
2.296
-12.016
4.6
3.176
-0.48
16.048
5.992
-4.36
-14.592
0.872
-10.92
-5.84
-15.92
-6.296
-9.128
-13.696
-15.28
-5.08
-11
-10.384
-5.352
-4.168
-1.36
-16.2
-8.288
-5.344
2.992
-5
-7.48
-5.096
-13.72
-17.112
-13.6
-25.256
-13.328
-9.848
-13.976
1.12
-11.832
-18.272
-3.984
-0.608
6.8
-4.856
2.08
-5.368
1.12
-2.44
-11.064
-2.832
-0.312
-7.848
-1.6
-15.776
-2.96
-16.368
-6.216
6.92
-9.88
-4.856
-4.912
0.888
7.72
4
-7.056
-1.12
-9.08
-4.88
-0.936
-12.904
2.232
-5.008
1.48
-18.712
0.696
5.48
-0.648
0.6
-2.136
-6.464
-11.792
-6.304
-18.96
-21.88
-11.64
1.568
6.488
-14
-5.792
-1.192
0.856
-13.784
-10.04
-18.496
-3.864
-7.568
-2.688
-4.24
-7.856
-4.56
-0.048
0.616
17.8
6.76
1.48
6.72
-1.128
-9.24
-3.784
3.064
-11.968
-3.52
-10.2
-8.28
-18.24
0.432
-5.624
-14.16
-1.944
1
-0.928
-3.464
11.88
5
4
-9.296
2.984
1.4
-6.152
-1.728
1.888
-7.968
-3.28
-20.8
-8.632
-6.944
-12.088
-2.96
-5.28
-3.728
-6.392
-4.752
-2.6
-5.136
5.16
-4.328
-11.392
-11.4
-12.616
-12
8.368
-10.288
-14
-10.096
-18.368
9.416
-9.648
-14.44
-2.984
-6.304
-10.08
-2.232
-6.4
-1
-3.088
7.888
-4.28
-2.08
-12.232
-4.448
-8.272
-10.768
1.44
6
-1.168
-13.312
-14.456
-14.2
-12.736
-13.928
-4.096
-5.552
1.84
-6
-3.752
4.096
4.896
0.04
-12.816
2.552
-10.24
-10.952
-17.72
-10.424
-4.08
-12.296
2.776
0.72
-12.336
-0.536
-5.304
-4.888
-6.8
13.448
-5.032
2.912
1.368
-1.96
-1
-7.168
-1.648
-3.488
-16.36
-12.352
-3.312
-6.88
-6.36
-4.92
-8.824
-11.592
-9.72
-9.32
5.2
2.432
-13.808
3.496
6.168
-2.8
-9.928
-2.264
-20.16
5.712
-2.2
-7.68
-5
9.824
-2.712
0.08
-0.488
0.768
-3.984
-4.728
-0.68
0.208
9.08
-10
5.344
-3.88
-7.648
-8.592
-4.448
-8.992
-8.4
-9.024
-9.312
-12.616
-0.944
-8.92
-7.12
4.64
-2.712
0.608
7.04
6
-9.24
0.664
-4.304
-1
-9.112
-6.92
-4.328
-0.56
-4.28
-5.344
-21.552
-12.616
-10.432
-9
-2.72
-5.672
-2.144
-4.04
0.08
0.864
-3.944
-4.848
-1.592
5.44
5.976
3
-5.128
-10.032
-6.44
-14.856
-7.312
-12.456
-19.24
-5.36
-21.872
-3.888
-13.648
-8.416
-2
-1.496
-6.624
-8.936
-6.432
-5
-7.096
-2.784
-12.328
-7.84
-13.96
-16.456
-6.688
-5.464
-0.176
-18.72
-7.576
-9.128
-2.256
-2.008
-2.04
4.584
6.44
-7.176
-11.168
-8.6
-6.584
-8
-5.296
0.736
-7
-15.568
-4.528
-5.432
2.328
-19.04
6.208
-14.376
-19.568
-1.712
10.76
11.312
2.408
-3.68
0.872
-5.04
1.592
0.632
0.92
12.624
10
1.536
-9.44
-3.072
-3.496
-8.08
7.328
6.656
3.968
-4.776
-3.92
-4.312
10.232
13.016
9.096
-1.04
2.424
-4.168
-2.36
-6.168
-0.64
-0.528
-6.344
-8.224
-8.008
6.6
-5.416
-3.064
-15.936
-1.032
3.72
7.176
-6.32
-11.16
4.392
3.2
-4.672
-15.12
-7.576
-3.136
-2.68
-12.208
-13.768
-6.32
-7.136
-4.92
6.272
-11.44
0.656
4.568
3
0.144
2.232
7.712
5.968
0.52
-6.032
-7.696
-10.536
9.408
-6.44
-10.528
-14.424
-8.376
-12.112
-17.32
-10.088
-3.632
3.64
-2.232
-5.68
-0.944
-2.112
9
2.216
2.4
-0.248
6.152
-7.248
-11.176
-8.04
-20.24
-5.176
-13.256
-3.832
-7.92
-11.536
-4.568
-5
-10.952
-11.56
8.808
-5.096
-6.936
-16.552
-2.56
-9.536
0.232
-13
-3.408
-11.4
-9.28
-17.528
-19.72
-9.96
-1.16
-7.192
-12.776
-7.512
1.48
-0.52
13.568
10.568
2.12
5.064
-2.96
-0.664
-10.624
1
-3.072
0.56
-10.512
-1.72
-14.488
-19.136
-15.6
-3.072
-9.568
-8.6
7.256
11.88
1.888
-1.064
-3.048
5.648
2.92
12.032
-3.12
-1.672
3.736
-7.64
-14.424
-3
-11.392
-7.976
-16.04
-6.472
-4.968
-5.328
-6.496
-1.6
-2.24
1.624
21.936
-1.016
-9.04
-6.12
-9.728
-9.184
-5.84
-2.68
-15.672
-21.112
-12.424
-17.832
-11.32
2.456
1.464
-11.664
-10.304
-6.32
4.768
-0.432
-9.328
7.04
5
-16.568
-12.48
-3.736
-2.344
-10.4
-10.24
-6.696
-11.448
-11.608
-3.04
1.224
-2.76
-2.496
5.328
1.24
9.464
5.288
3.776
-2.88
-9.52
-8.92
-1.168
-12.416
-10.784
2.2
-15.016
-11.368
-9.784
-6.216
-10.08
-11.952
-8.28
2.336
-17.896
-9.96
-1.904
16.432
-7.768
-5.232
2.4
-12.328
-1.032
-12
-8.104
3.76
-16.92
-9.816
-15.304
-10
-8.2
-6.864
3.512
-10.264
-15.064
-11.24
-6.936
-5.792
2.488
-5.32
-7.92
-12.496
-7.048
-1.096
3.856
-3.96
-4.32
-5.728
-15.432
-17
-7.16
-5.16
0.792
-6.456
0.208
4.6
-7.2
5.264
0.488
16.504
8.92
4.32
-0.68
-5.936
1.584
-11.32
-13.896
-17.464
1.912
-9.552
-4.12
-3.896
-9.672
2.072
-3.536
0.52
-6.84
105.8
-19.32
-35.48
-24.8
-7.824
-10.104
-13.608
-0.984
-6.16
-6.856
-0.632
-27.4
-15.144
-4.84
-5.672
-9.136
-1.976
5.032
-5.32
3.888
4.464
1.016
-9.712
5.28
-1.536
-14.968
-4.712
-17.376
17
7.952
1.176
-3.288
-3.112
-3
-7.528
-1.664
-6.088
4.024
3.16
2.616
-5.488
-2.24
2.264
-6.8
-4.896
-2.128
0.912
2.88
-7.64
10.912
-5.216
-9.688
-7.392
0.4
-3.024
-0.848
-7.44
2.216
1.68
0.024
6.032
5.656
1.104
-10.68
-0.824
-8.432
7.12
-20.872
-7.48
-3.712
-23.952
3.04
-12.656
-12.56
10.88
-3.792
-1.6
-3.224
-7.6
6.312
-6.008
-2.352
3.264
-12.64
-13.12
-4.112
-20.408
-6.84
-23.88
-4.36
-10.712
-7.336
-20.056
-9.96
-15.488
8.816
-3.848
-7.752
-5.28
-4.96
5.56
-10.032
3.656
-3.6
3.168
2.696
-6.096
1.256
-4.12
5.44
-24.168
-11.064
-6.064
-18.88
-12.208
1.12
-11.344
-7.096
4.28
1.84
-9.328
-13.072
5.88
-9.28
-4.392
-1.72
-1
4.776
-9.6
-2.216
12.44
-13.944
5.8
3.04
5.68
-12.368
-9.136
-3.16
-2.4
-3.768
3.096
5.912
-5.472
-6.48
-3.296
-11.616
-6.008
-1.712
-4.24
-5.696
-5.144
-4.864
0.664
-3
-9.144
0.944
-13.84
-5.192
11.68
-1.136
0.384
-3.152
-6.728
5.88
-9.056
0.152
-14.496
-4.984
-8.8
-11.304
-17.288
-8.912
-6.44
4.24
-4.92
-10.056
-5.752
-7
-7.6
5.008
-3.968
-12.504
4.024
0.04
-9.512
-5.64
-4.248
-8.896
-9.92
2.552
-7.448
0.76
-3.792
-6.08
-1.032
-11.048
-1.128
5
-5.72
-2.168
0.536
1.088
8.056
9.2
5.48
-5.056
-2.648
-6.592
-5.6
-12.264
-15
-1.944
-4.328
-9.72
-1
0.712
-14
-10.352
6.6
-9.496
1.976
4.264
0.944
-11.52
-8.92
2.264
-5.592
-8.688
-10.4
-12.112
-21.352
-12.512
-15.416
2.32
-2.776
2
-0.032
-11.776
-12.04
0.592
-8.768
-0.416
0.824
3.64
1.048
-4.584
1.248
3.656
-4.8
-1.216
-9.496
-12.632
-2.232
2.4
0.152
-4.352
-0.272
-2.912
-4.6
-0.888
9.416
-13.24
-0.768
-10.6
-10.408
-13.128
-10.424
-8.976
-1.4
2.456
-14.232
-8.92
-4
0.48
-1.848
-9.432
-1.096
-4.384
-9
-6.376
-4.944
-2
-1.608
-7.76
0.256
-1.68
3.312
-17.408
-8.44
-7.248
-5.696
-2.016
-8.688
-10.44
-14.232
-15.16
-8.68
-21.152
-11.12
1.96
-9.664
7.48
-10.632
0.8
-11.728
-7.336
-11.624
-9.648
-17.4
-18.024
-8.032
-16.576
-11
-6.08
-0.632
-7.224
3.888
-13.616
-3.28
0.936
3
-14.168
0
-7.96
-7.544
-7.696
-15.048
-3.296
-4.6
-17.448
-6.488
-11.352
-12.408
-0.8
-2.872
-13.528
-2.728
-6.176
-3.64
0.712
-3.12
11.688
-7.288
-4.96
-5.992
-4.432
-2.472
7.688
-2.64
-8.448
-5.896
-14.568
-11.824
-9.6
4.944
-6.128
-2.464
-2.208
-7
-5.992
-6.488
0.256
6.744
-5.12
-11
-6.824
15.88
-0.536
-16
-11.424
-10.568
-8.144
-5.88
-2.76
-9.392
0.032
-3.664
-5.992
2.2
-2.368
5.608
6.272
-7.984
-21.16
12.208
-6.456
11.448
-2.144
-2.08
-16.704
-5.992
-18.88
-7.752
0.28
-8.816
-8.464
-10.28
-2.424
-5.36
-0.384
11.84
21.808
9.336
-7
7.52
0.52
-2.28
-9.888
-8.64
0.864
-1.664
-5.304
-15.384
0.2
-7.28
-13.728
-3.752
-17.704
-14.64
-10.16
-10.368
-10.632
3.088
-9.84
-15.928
9.384
-2.104
-9.088
-5.6
-11.536
-21.152
-12.064
-10.256
-18.76
-9.12
2.536
-8.832
-4
-7.84
0.64
-1.88
-1.936
4.872
0.68
-7.936
2.744
2.488
-5.992
-3.52
-17.288
-10.72
-1.92
-4.24
-3.8
-3.792
-9.008
-20.296
-13.288
-4.68
-10.808
-5.512
-11.16
6.464
-16.36
-0.856
-10.24
-8.808
10.28
5.16
-6.496
-11.648
0.512
-12.752
-6.92
-20.408
0.072
-6.96
-4.144
-7.4
-6.888
-3.48
-6.84
11.216
-2.16
-4.32
-12.168
-1.048
-6
1.12
-16.128
1.24
-13.984
-12.552
-13.76
-12.376
-2.32
-7.712
-11.048
-17.72
-1.04
-1.44
-6
-6.536
-5.4
-3.976
-17.024
17.104
3.848
-13.08
-7.912
-0.496
-17
-4.304
-10.12
0.968
-1.368
3.088
-7.584
-4.64
-8.752
-4.008
-2.344
-1.712
3.68
-12.384
-12.56
-7.616
-10.896
2
-17.432
-9
-6.712
-10.96
-14.88
-16.952
-2.272
-2.536
-5.208
-11.8
-3.496
-4.816
0.632
1.016
-1.08
-11.072
-14.632
-7.544
10.736
-9.4
-4.12
-16.888
-17.856
-6.936
-7.4
-13.56
11.184
5.064
6.352
-6.48
1.144
5.856
2
-3.264
1.08
2.92
1.464
1.24
-13.928
0.84
-17.192
-4.096
-9
-11.208
-6.64
-4
2.256
1.912
7.888
-5.6
13.104
7.6
-2.984
4.512
2
3.552
-4.68
-13.976
-13.816
-11.96
12.208
-11.88
-13.784
-8.144
-10.8
-6.496
6.92
-5.36
6.12
-0.16
1.592
0.648
9.552
3.688
4.2
0.944
2.952
-1.816
-3.088
1.36
-11.328
-15
-15.888
-9.352
-20.04
3.664
-3.648
-9.464
-8.272
-6.44
-5.736
-10.16
-8.072
8.168
-6.56
2.648
-21.624
-8.848
-2.496
-4.8
-8
-17.272
-3.616
-7.936
-21.8
-8.504
-7.544
-1.392
-7.912
-11.84
-2.968
-7.752
-2.456
-0.416
-11.96
-1.568
3.68
-0.976
-11.544
-1.96
-8.888
-1.432
1.384
-8.76
-1
0.424
-2.48
-4.576
-2.344
-4.04
0.44
-0.984
0.848
13.84
-5.2
2.416
-9.272
0.008
-1.936
-7.28
-7.68
-6.84
1.456
-8.088
3.44
-33.872
-11.72
-4
-6.48
-15.8
-9.736
1.368
3.376
-2.784
1.08
2.608
-12.144
-9.912
-10.624
-10.6
-1.184
-23.64
-11.288
-4.28
-13.84
-12.968
-5.872
-7.384
-21.992
-13.32
-16.04
1
5.432
-3.832
0.4
-6.176
5.496
-4.808
-5.712
-6.64
-1.072
-1.096
-14.704
-12.984
0.72
3.712
-18.568
-3.192
-2.208
5.28
-10.16
-2.808
-2.32
0.624
5.96
0.552
-5.192
-6.024
1.928
1.4
-5.776
-19.568
-8.72
-5.456
-12.44
-11.104
7.592
-12.84
-7
-6.6
-5.488
3.704
-1.984
-1.72
2.6
-0.32
3.336
-8.864
4.048
-1.04
-9.528
-17.776
-8.184
-13.032
-11.4
-15.568
-2.688
-0.56
1.048
-16.48
-8.176
-5.64
-14.952
-13.984
-9.68
-5.392
-0.384
8.304
0.584
-10.64
5.544
-4.152
-5.36
3.832
6.8
-0.192
-4.576
-16.176
-4.712
-9
-9.664
-7.04
8.712
14.424
5.12
-4.288
17.264
-13.768
-16
1.08
0.72
-5.88
-8.128
-13.672
-0.64
-3.84
-10.448
-14.688
-11.352
4.52
11.816
-13.832
-2.416
-4.368
-14
-5.512
-4.888
-10.624
-6.744
-3.08
1.048
2.536
-18.168
-6.152
-7.24
-5.912
8.984
-8.944
-4.152
-3
-13.968
4.984
-17.296
-1.456
-10.48
-7.712
-3.84
-14.744
1.48
-13.8
-2.688
-6.456
-5.12
-14.696
-13.36
-2.872
-14.472
-14.136
-6.496
-9.4
-8.784
1.76
-4.12
-2.136
-3.68
2.664
-3.568
10.208
-6.808
-1.84
-4.064
10.648
-3.072
-4.792
2.8
-1.704
-8.52
1.16
1.08
10.48
3.896
10.424
-0.048
-6.904
-3.48
5.488
12.184
-6.552
-4.816
-8.72
-4.104
-11.08
-10.824
2.192
-0.6
-6.04
-14.496
-1.224
-14.752
-11.8
-5.456
-2.04
-2.28
-1.944
1.72
12.504
-10.32
-2.104
-8.304
-10.28
-4.984
-7.016
-3.184
-9.56
-8
-10.496
4.304
0.952
-8.712
-4.2
-2.616
3.144
1.08
-1.808
1
-5.616
-9.52
-10.128
-10.272
-3.4
-1.136
-4.688
-10.152
-13.704
-11.96
-15.72
-4.512
-7.504
-6
-12.4
-1.768
11.032
1.68
-2.264
-3.76
12.864
-9.608
-11.624
-0.152
-2.8
-1.496
-7.336
-4
-17.176
-7.6
-12.36
0.608
4.08
0.632
-3.72
1.448
-5.896
-1.528
4.128
9.28
-3.264
-4.096
-14.36
0.104
-5.56
-0.456
-4.072
-7.736
-16.72
-8.2
2
-10.456
-1.336
-1.592
2.24
14.128
0.152
4.784
-1.336
-0.64
-0.92
-4.688
-9.856
-5.144
-0.52
-3.496
-5.272
-7.888
-4.376
-8.04
-4.328
1.264
-8.504
-7.624
-2
-3.184
-5.168
-4.976
-4.704
-3.76
4.76
-7.616
-7.952
10.648
-7.4
5.416
-22.472
-22.552
-13.368
-8.92
-19.216
-12.008
0.072
-3.928
-2.04
-5.08
-12.12
2.232
39.848
-52.4
-19.152
-6.664
-2.392
5.872
-14.56
-1.912
-7.272
-1.896
2.536
3.56
3.016
-6.616
-9.88
3.248
-4.32
-1.864
-7.544
-6.008
-9.424
3
6.616
-9.712
-1
1.856
4
-2.52
4.672
-3.432
6
-16.28
-17.984
-1.696
-9.696
-6.888
-1.04
0.248
9.064
6.12
12.624
11
-2.768
-1.024
0.184
3.088
-14.08
-3.976
-17.056
-13.064
-3.976
6
-8.752
-8.704
-10.84
-9.744
-7.6
-13.56
-3.784
1.584
-7.576
8.2
-16.736
-13.688
-3.584
2.872
-13.32
-2.84
0.968
-5.576
-17.312
-5.44
7.712
2.208
-15.832
-1.48
-6.4
-4.248
-1
-1.808
11.472
-1.2
5.192
-2.056
-2.136
9.992
-1.12
7
-6.904
0.736
2.072
-3.76
-13.68
-9.488
-9.152
-12.312
-7
1.96
5.984
4
0.176
3.2
-3.648
-5.264
-17.624
-12.84
-4.48
-12.776
1.744
-11.952
-17.32
-17.6
-12.616
-4.056
7.176
-7.816
0.12
-4.68
-8
2.176
3.32
-3.72
0.04
-1.16
3.704
-8.784
-6
-12.176
-10
-1.84
-0.984
-6.44
-0.472
-4.408
0.24
-2.536
-1.12
-12.048
2.248
6.576
12.888
0.56
-3.248
-4.456
-11.672
1.168
-0.36
-7.536
-1.88
-8.52
8.376
-13
-7.096
-10.864
-6.28
6.616
-6.52
-2.696
1.632
9.296
10.496
-2.12
3.752
0.336
-7.264
-6.672
5.92
3.128
-5.104
-2.408
-2.088
-12.48
-26.832
-19
-7.624
-4.264
-2
-5.472
2.776
12.592
5.08
11.04
2.264
0.392
2.576
-3
9.72
-7
3.952
-10.112
0.488
-8.2
-4.52
5.952
-14.168
4.328
2.36
1.456
-5.464
2.04
9.704
6.8
3.416
-0.024
-3.984
-1.592
-2.8
-2.184
-1.528
-14.352
-6.992
-14.2
-3.368
1.24
7.76
-12.784
-12.16
1
-8.376
-6.944
-4.944
3.92
-3.896
1.664
-3.976
-6.624
-1
-1.72
2.696
-3.672
-7.712
-7
-15.32
3.552
-4.048
-7.904
-19.68
-11.92
-4.296
5.552
-1
-5.44
0.472
-4.328
-6.928
-4.192
-1.04
4.688
-4.248
-15.48
-11.024
-2.4
4.936
0.584
2.28
-12.984
-8.36
-14.064
8.136
1
-0.448
-2.36
9.048
13.632
3.152
-4.36
4.92
5.776
-5.312
-8.008
-14.32
-7.2
-15.424
-5.576
-2.152
4.896
-1
-9.624
-16.48
7.968
-11.08
-10.76
-1.864
-12.984
-14.776
-12.68
-8.24
-15.224
-2.664
-12.496
-18.736
-15.16
-15
-5.368
-9.864
-1.912
-3.92
-5.896
-1.224
2.896
-0.368
1.8
-4.72
6.04
-1.688
-8.392
-2.04
-14.56
-13.392
-21.672
-8.416
-16.2
-11.168
-4.552
-16.12
2.848
-8.64
-17.808
-7.856
6.808
6.784
6.68
7.208
-7.536
1.872
-5.72
-14.8
-0.928
5.04
-16.544
-1.816
-8.64
-20.008
-10.112
-14.08
-12.488
-12.84
-3.008
-2.528
-2.144
-0.992
8.04
-2.024
-4.024
-11.888
3.568
-6.92
-9.288
-0.088
-13.544
-0.552
2.8
-0.816
-13.216
-5.512
6.208
-7.24
-5.56
-9.168
10.808
4.616
-6.2
-8.336
9.824
3.432
0.912
-10.52
-11.104
-0.488
-18.536
-10.048
-4.68
-4.864
-3.592
-0.144
0.28
-15.8
-9.696
-18.296
4.44
3.928
-9.88
2.472
11.368
-1.816
-2.608
5.2
-4.032
-12.496
-17.488
-14.416
-6.04
8.136
-18.008
0.328
-6.016
1.32
-5.848
-10.704
-4.384
1.28
2
4.52
-7.944
-2.152
1.264
-3.44
6.712
-10.992
-6.928
-8.248
-2.84
-13.112
-11.544
-9.128
-15.456
-7.04
-11.896
0.264
-11.224
1.44
-4.72
0.936
2.944
-8.688
-14
-12
-0.264
4.856
-6.904
-13.608
3.8
-1.584
2.896
-6.84
-0.264
-2.28
-4.272
-13.208
-4
4.104
5.6
9.648
2.808
-6.808
-6.088
2.88
-5.584
3.696
4.92
-2.296
-9.8
4.136
-8.952
-5.704
-15.328
-12.04
-7.448
-4.96
-1.512
-11.968
4.88
7.72
5.12
-1.048
-9.64
-4.68
-6.152
-14.648
-2.832
-22.568
-16.84
-3.96
1.984
-5.496
-3.408
-15.8
8.536
0.656
-5.72
3.296
4.8
-3.112
-2.488
-4.872
-12.488
-24.2
-7.128
-9.888
-12.864
-17.28
-11.6
-0.048
-8.488
-15.36
-16.752
1.64
-10.312
-3.968
-19.6
-7.248
-8.8
-7.872
0.376
-0.608
-11.904
1.88
-7.792
-1.088
-4.632
-14.16
-4.56
-13.688
-4.144
-3.336
-4.392
-2.92
-0.456
-9.624
7.616
16.424
-9.4
4.384
-1.704
-7.808
-9.24
-10
5.944
-9.136
-4.72
-6.768
-1.64
-4.832
-9.968
-13.304
-9.248
-7.08
5.136
-2.12
-4.744
0.672
10.44
1.84
1.608
0.36
-9.056
12.88
2.984
7.496
2.272
3.024
-13.6
-1.512
-14.408
0.032
0.432
-2.8
6.512
0.32
-3.24
6.104
1.28
-0.088
3
-0.352
6.488
2.08
1.552
-2.968
-9.576
-11.232
-12.48
-15.96
-0.512
-9.52
-8.168
-5
-18.032
8.456
0.28
4.552
4.36
-6.256
5.984
12.272
3.648
-3.32
-1.504
-13.64
-2.952
-9.08
-20.4
-15
-13.056
-1.264
-6.504
8.4
5.304
-6.088
-2.984
-6.032
-7.6
4.352
-6.96
-0.208
6.792
-2.32
-9.328
-14.616
-12.888
-23.128
-15.88
-18.384
-16.648
-11.328
2.552
-1.08
-5.104
-3.664
-6.072
2.344
-5.32
-1.784
7.408
4.072
-4.992
-5
-14.872
-0.248
-1.112
-11.936
-14.36
0.824
-14.096
-8
-10.984
-4.32
-6.344
3.12
1.848
6.664
-2.16
2.16
7.624
-2.312
-0.256
-12.12
-19.584
1.992
-2.944
2.04
-4
-10.192
-6.576
-8.424
1.272
6.16
-5.288
6.328
-4.456
-2.704
-5.88
8.168
4.968
0.128
1.936
2.36
-0.696
-8.608
-3.272
-3.912
-22.4
-9.904
-4.504
-4.144
-16.264
-5.4
-2.704
-1.744
-0.72
-3.216
3.44
7.192
5.896
16.16
-7.992
-8.64
-14.096
-19.568
-9.296
-5.536
-2.64
-14.808
-22.096
-19.424
-4.56
-15.76
-19.504
-11.792
0.216
3.832
0.6
-2.688
6
-5.736
-7.656
-5.6
-2.248
-3.04
-1.216
-16.648
-14.36
-7.784
-9.976
-4.904
-7.576
-8.28
0.16
-5.352
13.848
-0.696
2.64
-6.488
13.912
-3.048
-4.656
3
-2.352
-11.216
-9.928
0.168
-3.84
-7.448
-5.064
-7.112
-11.032
-11.52
7.104
3.24
4
-2.456
7.96
1.424
3.352
-9.576
-5.144
0.36
-3.04
0.872
-4.184
-13.04
1.6
10.504
-1.104
-12.16
-9.984
-10.76
-6
-8.368
-2.16
-9.912
-0.24
1.72
0.616
-4.272
-4.336
-14.32
-10.208
-8.072
-6.312
-1
-6.64
7.696
-8.136
-8.056
-3.616
1
6.048
-6.52
-3.296
1.456
4.28
-1.424
4.04
12.696
2.272
7.24
1.752
-8.512
-10.36
-2.592
-11.72
-0.624
-5.424
-4.456
8.68
-9.48
2.912
-8.776
-14.272
-7.24
-1.4
-6.472
2.224
-3.128
-2.688
-9.36
-9.56
-7.432
-6.256
-2.632
-9.64
-2.352
-5.136
-7
-10.256
-12.04
-14.456
-9.144
3.296
-13.208
10.16
-2.632
7.768
-8.392
-15.224
4.6
-14.936
-10
-18.44
-5.448
-7.88
-10.184
-16.264
-11.624
0.976
-5.2
-1
0.072
-12.784
2.496
-14.84
9.816
-3
3.112
4.872
-2.8
18.264
-0.384
-1.056
-10.104
-12.2
-2.408
-2.608
-4.72
-2.712
-1.56
0.992
-6.576
-5.984
-4.776
4.28
-6.872
-5.288
-1
1.904
-0.04
1.736
4.416
8.176
-3.096
-18.76
-12.136
-8.72
0.888
-3
-4
-6.304
3.648
2.168
7.016
4.2
10.824
2.32
2.344
-10.128
-3
-6.016
4.64
-5.912
7.528
2.36
-9.456
-10.232
-6.968
-4.136
-14.28
-5.344
-1.856
-2.904
4.616
-1
2.568
3.04
-6.712
-10.16
-0.76
-5.272
1
-4.464
-3.272
2.64
-11.28
-17.272
-16.24
-5.968
1.44
-1.84
0.976
-6.36
6.208
9.24
7.944
-7.72
-3.064
-1
0.6
-2.016
-1.744
-2.464
-4.92
-11.52
-2.928
-9.856
-7.24
-11.264
-4.2
-15.552
4.208
-6.36
-7.952
-3
-3.872
-9.744
5.192
11.096
-18.56
-6.048
-5.488
12.264
2.016
-0.8
-10.416
-9.928
1.736
-7.448
5.28
-4.944
-9.416
-25.304
-11.832
-4.84
3.288
4.784
6.048
-3.28
7.96
-1
-3.112
-9.568
-10.496
4.6
7.248
0.824
-11.488
-9
-3.6
-9.592
4.216
-9.184
-2.664
-6.84
-0.44
1.808
-10.064
-25.392
-5.56
5
-8.584
-15.848
-5.816
-1.44
-4.792
-7.584
-12.112
-7.704
-9.8
-8.216
-13.72
-10.744
-2.768
132.8
-44.96
-28.04
-4.616
-5
-11.12
1.12
-4.088
-14.056
1.608
-7.44
0.72
-15.752
-9.488
-1.776
-16.24
-10.088
-9.616
-8.992
-11.712
9.4
6.576
1.296
-1
-3.952
-17
-1.384
-14.096
-1.016
-10.688
-3.44
-5.048
-14.296
-1.376
-4.568
-5.6
-6.224
1.968
4.872
-0.28
10.12
-5.752
10.448
16.824
11.472
8.08
1.968
-13.44
-9.208
0.04
-3.8
4.232
-6.08
-4.872
-0.392
2.96
6.392
-3.504
-12.592
-5
-2.24
3.368
-3.448
-17.24
-9.28
-5.04
-9.16
-20.744
-2.64
-10.776
3.88
-15.088
-3.608
4.096
-10.128
-0.2
2.44
0.008
-5.56
-10.408
-5.36
-2.68
-2.208
-5.24
-0.496
-1.64
6.208
-15.52
-1.832
-1.136
-0.4
7.976
-0.592
-13.04
-6.128
-16.44
4.488
0.104
-8.008
-7.552
-5.6
-6.832
9.4
-1.136
-12.424
-1.32
-1.552
-6.744
-14.92
-5.224
-2.64
1.488
-18.528
-7.984
-15.832
-2.76
-1.744
1.496
-5.824
-9
-4
13
7.656
-7.256
-4.496
-8.4
-2.784
1.544
-20.168
-2.144
-3.4
-20.592
-6.184
-6.264
-12.984
-8.88
-0.608
1.752
-7.12
-1.528
-7.2
0.296
2.768
1.352
-10.456
-9.04
-8.384
-9.856
-10.152
-1.568
-9
-23.136
-1.48
-5.696
-6.768
-7.08
-10.864
-6.384
-5.232
5.408
1
-1.608
-0.24
2.008
-2
6.04
-8.552
-15.368
4.272
-6.384
-3.76
-1.024
-21.16
-5.96
1.912
-7
-4.472
-2.48
-14.936
-5.312
8.44
0.264
-6.752
-0.008
4.584
-0.72
-10.92
-8.448
0.768
0.536
-5.6
-17.776
0.952
5.168
-13.544
-7.72
-2.336
-15.808
-0.992
-0.168
3.4
14.448
3.008
0.104
-12.304
-8.2
-6.872
-12.696
-4.84
-3.184
-6.84
-3.352
-6.024
-18.832
-6.072
-15.28
-5.504
-9.68
-5.904
-6
-7.76
-7
1.016
3
-1.792
-6
-1.872
2.048
-0.232
-1
4.28
-14.768
-0.576
-26.824
-1.352
-5.2
-2.592
-10.888
-8.088
3.904
-1.08
-3.792
5.08
6.36
-11.88
-6.96
2.568
-8.472
-0.552
-5.992
-6.6
-12
8.816
-7.44
-12.888
10.68
4.296
12.456
4.632
-7.464
-0.04
2.344
4.744
8.968
6.864
-3.68
4.68
4.464
-0.632
6.168
-1.28
0.112
4.84
-0.616
8.616
-5
5.952
-11.056
8.552
-2.696
-3.96
-6.696
-1.008
-10.696
-6.592
-13.68
-1.192
-3.544
-13.248
-5.688
-18.92
-9.856
-14.976
-16.32
-3.32
-10.2
-6.048
-3.056
-14.416
-1
0.2
4.248
-5.704
-2.248
11.296
-8.32
-13.512
-12.184
-4.416
-3.104
-15.92
-27.184
-20.656
-10.584
-14.464
-12.6
-10.68
10.84
-1.064
-8
-8.88
11.048
2.488
2.608
-13.888
-5.6
0.656
2.528
2.792
2.12
-5.04
-9.568
-16.208
-7.568
-2.704
-16.56
-10.144
-3.192
2.52
-7.712
-0.6
9.816
-8.056
-10.096
-2.44
-3
-7
-3.632
-11.52
-5.448
-9
-5.48
-12.176
-8.88
-6.536
-0.44
3.416
2.744
-18.032
-9.032
-5.84
-3.824
6.704
4.776
-4.456
0.04
-2.064
4.272
-2.248
-2.952
4.76
-6.136
7.248
-9.112
-4
-12.2
-7.392
-3.04
1.224
-1
-11.92
-3.44
4.088
-5.288
6.056
-9.64
-5.048
-9.624
-4.216
-8.888
-6.68
-7.088
-12.92
-2.336
-5.336
-4.8
-11.504
2.288
-0.592
8.424
-1
-12.616
-1.672
-0.136
-6.616
4.8
-4.456
-3.656
-10.224
-4.592
-4.28
-14.528
0.968
-17.616
-10.624
-12.6
-5.624
0
-6.96
-14.264
0.76
3.928
2.952
11.48
-6.064
2.4
-0.512
-10.856
2.904
-7.744
-7.2
-12.928
-8.712
-3.824
-21.216
-12.08
-14.56
-13.464
-0.112
-1.36
-4.72
-1.16
-1.08
8.68
-7.656
-9.32
-12.416
-5.536
0.216
-1
-4
-8.928
-8.072
-10.032
-15.448
-4.52
-3.752
-9.056
-10.92
0.48
3.52
-4.92
2.856
2
6.136
7.28
-10.336
1.136
-17.944
-10.008
-10.04
-8.776
-8.544
-17
-15.144
-11.2
-5.576
-14.128
-2.584
-5.296
-1.16
5.224
-5.512
4
-14.52
-2.56
-4.488
-0.88
-6.568
-3.992
0.6
-12.584
-9.24
-15.36
-2.808
0.32
3.864
-0.408
5.368
-0.736
-0.8
4.52
11.48
13.16
-1.88
-10.44
-9.472
-1.816
2.792
-10.16
-15.4
-18.032
-13
-11.368
4.528
1.52
-9.136
-1
3.344
-3.712
-1.96
1.04
7.568
-7.136
-4.904
1
-1.336
-8.192
-10.12
-11.616
-12.04
-12.832
-16.376
-17.632
1.888
3.52
-10.696
-11.544
-1.744
-1.424
-2.28
-6.376
1.08
-6.728
-2.12
-15.52
-14.952
-10.944
-3.52
0.96
-5.2
-19.024
6.632
-7.816
-3.528
-3.16
-9.464
-9.928
8.92
-2.264
-3.72
8.472
-7.208
-0.056
-7.592
-4.52
-3.16
-4.128
-2.32
-2.12
-0.12
-3.08
-5.464
-11.96
-8.112
-13
-3.208
-4.024
-8
11.264
-1.8
-10.632
3.416
4.488
-0.008
4
-6.072
3
-6.904
-6.568
-14.92
-2.68
0.432
-0.472
-2.312
-12.04
-3.816
-3.456
-5.552
-16.968
-5
-14.888
-11.744
13.208
1.832
-5.16
-8.104
-9.128
-11.824
2.84
-3.36
-14.184
-9.352
-15.64
-8.552
-6.36
-5.472
-1.08
3.432
-8.024
1.36
8.688
7.096
7.144
9.272
7.2
-12.112
9.752
-15.216
10.776
-1.56
-14.032
-17.096
-18.104
-19.48
-14.88
-11.784
-4.488
-12.848
7.976
-5.6
3.432
7.08
-7.648
-3.304
11.44
0.312
-4
-1.616
-3.672
-11
-1.528
-11.288
-16.152
-24.312
-9.32
-11.832
-21.352
-3.384
0.544
-8.72
2.336
4.152
0.624
10.344
-12.36
12.376
-8.344
-12.912
6.296
-3.88
-1.992
-2.056
7.376
-13.064
-3.64E-12
-7.288
0.488
3.872
-0.608
-3.84
1.784
4.784
-11.496
-14.528
7.08
-3.544
-4.312
-5.232
-11.232
4.16
2.424
-2.112
-18.616
-9.216
-10.6
-1.16
-12.976
0.568
2.888
-10
5.24
0.024
-8.528
-2.552
-8.24
-6.432
-10.776
-9.16
-3.176
-3.28
-11.712
-19.736
-11.784
-13.072
-9.8
-10.176
-4.24
-6.568
-6.248
-5.2
1.736
4.912
-5.992
-1.552
-4.6
-3.48
6.4
-10.768
-4.872
-3.72
-11.56
-23.424
-3.016
-11.584
-1.92
-12.256
-5.12
2.104
4.264
2.28
3.416
5.656
22.112
3.976
-8.24
-3
-2.968
6.592
-0.784
-14
-3.128
-7.896
-12.832
-5.056
-15.72
-8.616
-9.224
-11.816
-10.464
-10.56
2.296
-2.248
-9.912
-8.72
-3.72
-7.16
-1.312
-13.664
-2.272
0.88
-3.96
-0.28
-1.712
-14
0
-3.336
-7.52
-12.432
-12.072
-9.92
6.408
-9.672
-0.296
3.272
-1.24
-5.64
-8.424
-4.736
-2.328
-3.6
-4.536
0.264
-11.456
-11.384
-6.8
-0.08
0.056
-15.208
-3.936
2
-5.488
2.408
-5.592
-4.664
0.36
6.608
-2.752
-3.336
-6.64
-8.36
3.92
-5
-3.176
-9.72
-18.76
-15.968
-15.856
-5.192
-13.992
-6.68
-2.664
-2.208
13.128
-6.52
-7
-4.272
-1.52
-3.704
1.224
-1.84
-5.624
-2.04
-3.944
-7.192
-19.88
-1.648
3.664
-11.976
-6.432
7.6
-13.496
-10.784
3
-12.936
-12.32
-14.144
-8.104
-13.896
0.104
-16.4
-8.52
-13.656
-15.976
-11.376
-3.32
-5.672
-5.616
-6.144
-15.296
-2.28
-4.048
-0.648
-3.896
-8.368
-9.4
-4.784
3.408
5.144
-7.512
-13.92
-1.528
-12.064
-5.704
-11.744
-2.8
-7.216
11.232
-3.832
-4.032
-6.68
-3.704
3.544
-4.504
4.072
6.36
-0.216
0.624
1.368
3.888
1.28
2.408
-8.92
2.328
-8.408
-5.04
-1
-20.4
-4.864
1.856
-16
-5.952
1.096
-1.144
-9.192
-18.28
0.528
-6.624
1.312
1.616
-4.36
-6.224
-6.336
-13.128
-8.032
-4.92
-6.016
-6
-3.544
3.416
-13.6
-2.056
-0.056
2.168
-0.696
1.6
-3.032
-1.408
-12.528
-3.312
-5.44
3.856
2.288
-11.92
-2.472
-5.76
-8.72
-2
-3.824
6.36
-6.84
1
11.888
14.232
3.664
-19.96
0.664
-12.16
-3.696
-13.52
-16.8
-16.312
-16.984
-4.368
-14.856
-12.64
-6.872
1.304
-8.432
-3.832
-1.24
-8.424
9.64
-0.856
7.28
1.84
-3.496
-1.784
3.792
-7.88
-3.64
-11.04
-28.176
-16.416
-18.344
-1.6
2.184
-7.44
-1.512
-4.544
-7.16
-0.904
-4.168
3.984
-4.776
4.68
17.696
-6.888
-1
-3.72
-5.6
-10.792
-15.168
-12.896
-11.632
-10.76
-4.08
-5.592
-9.152
3.752
-15
105.24
-23.312
-27.456
-7.168
5.64
-16.384
-15.816
-19.712
-8.856
1.12
-5.704
-21.632
-8
-18.528
-8.28
-15.136
-2.616
-2.04
-2.712
-1.04
-4.536
1.992
9.6
4.568
-9
3.472
9.368
6.696
-7.888
-1
-7.712
-13
-4.536
-11.656
-19.36
-0.584
-8.544
6.376
-12.984
-6.16
1.232
-1.92
9.136
-1.44
5.6
-3.984
0.552
-9.688
-4.128
-8.8
-16.504
-13.408
-7.064
-9.608
0.32
-11.168
-0.72
-7.336
-7.848
-7.68
-0.624
-15.52
-1.352
2.768
2.76
-7.128
-5.92
5.488
-7
-15.8
-12.912
-14.976
-1.648
-1.48
-19
-3.656
0.048
1.736
-3
5.32
4.064
2.832
0.784
13.336
5.92
-13.496
6.592
-12.88
-11.136
-14.48
-4.328
-12.056
-9.68
-11.376
-11.88
-3.432
-11.72
-1.96
-6.104
-18.6
-13.112
-7.224
-3.232
3.752
-4.16
-1.664
0.232
3.856
0.128
-17.24
3.928
-8.824
-9.536
-15.728
0.36
-2.896
-5
-1.928
3.488
-0.24
-3.352
-3.44
-0.112
-11.784
-1
-17.024
0.376
1.552
-4.064
-5.72
-6.296
-12.416
-12.816
-16.16
-1.92
-2.656
-9.88
-4.392
-8.608
0
-5.752
0.536
0.352
-6.272
-7.32
1
-7.592
-14.096
-16.376
1
-14.904
-2.424
-9.296
-6.768
1.68
-12.56
2.664
-17.848
-6.024
-5.84
-3.552
-7.88
4.128
-6.392
5.08
-12.128
-9.184
-3.136
-21.768
-1.72
-16.12
-18.496
-16.752
-0.76
0.2
-7.24
-13
-9.528
-9.784
0.64
-3
1.184
4.24
6.16
-7.12
-0.728
9.552
-3.712
-0.152
-10.76
-11.84
-24.92
-18.168
-10.544
-8.2
-9.872
9.024
-10.608
4.184
7
1.72
1.016
-3.352
11.776
11.12
7.304
-6.472
-1.784
-7.832
-5.96
-12.632
-1.48
-4.264
-8.496
0.92
-10.336
-18.272
-5.4
-3.872
1.2
-1.936
2.192
-1
-10
-11.4
4.352
-9.912
-5.744
-14.208
-1
-4.904
-11.832
-18.808
-2.776
-4.96
-9.128
3.056
2.656
-0.184
4.28
-5.624
-6.336
-5.248
-2.392
-1.48
2.448
-0.312
3.032
0.544
12.4
-1.912
3.752
-12.832
-7
-11.96
2.24
6.504
-2.368
-11.912
0.28
-11.72
-13.496
-1
4.336
-2.2
-0.296
1.84
-6.344
0.456
-12.2
2.16
-15
-11.672
-15.712
-13
-11.712
-9.232
0.864
-1.464
3.84
-14.848
-1
0.544
-0.976
-3.28
2
-6.456
-9
2
-16.6
-11.216
-1.312
-18.96
-10.12
-11.04
-21.088
-9.272
-10.272
-1.128
-3
-2.272
-1.816
-2.472
-1.352
-2.4
-8.072
0.288
-11.168
-14.736
-8.96
-12.64
-2.48
-11.944
-12.512
-2.16
-18.456
-2.856
1
-2.016
-0.08
-9.504
0.12
-1.52
-13.368
-3.8
-8.208
-7.056
-8.632
-8.592
-18
-11.008
0.568
-10.728
2.488
-4
-15.928
9.688
-15.856
-9.432
-6.4
-8.816
-1.488
-1.056
-13.328
-5.68
-2.328
-6.176
-15.544
-10.648
1.2
-3.48
-14.216
-10.768
-3.584
2.36
-5.664
-5.192
-1.16
2.744
-8.8
1.336
-4.296
1.776
2.36
0.36
6
-0.496
-3.856
-10.44
-12.4
-3.864
-10.936
-13.776
-7.016
-19.4
-8.52
-12.168
-9.28
-0.888
-8.32
-1.12
0.728
-6.344
-9.072
2.36
-6.952
-9.264
-12.544
-10.304
-6.04
-12.408
-13.224
-6.656
-18.864
-12.28
-4.536
-6.008
-7.384
-3.72
-7
-5.856
-3.384
-5.56
-3.616
-6.08
-6.152
-8.312
-5.84
-1.656
-0.28
-4.248
-7.88
-15.872
-12.608
-18.4
-14.448
-16.92
-10.728
-5.44
4.6
-12.056
-2.664
-6
-6.936
-3.4
-7.52
0.816
-1.44
-1.824
-2.2
-3.656
-6.464
-10.088
-13.368
-10.04
-5.8
-2.912
3.464
0.104
-10.76
-6.872
-3.968
12.464
-4.896
8.48
-1.584
-9.976
-10.432
-12.48
-3.8
-9.136
-6.016
-14.072
-15.592
-15.4
-3.312
9.04
-2.592
5.664
5.24
-5.784
-4.736
-8.736
-5.504
5.88
4.144
6.488
-8.776
-7.808
-8.12
-9.448
-13.384
-6.976
0.176
-14.6
-13.52
-15.656
-1.976
-10.968
-4.56
-14.984
-1.232
2.872
6.36
-17.44
0.488
-5.592
-9.224
-1
-0.2
-2
-3.752
-4.464
-5.536
-14.28
-15.04
0.904
-5.96
-8.52
-2.8
-6.784
4.104
14.992
-9.912
5.52
-11.384
-18.32
-5.712
-4.752
-5.8
-10.672
3.256
-12.936
-10.944
-8.88
-13.408
-10.304
-4.984
-3.88
-10.48
-0.576
-3
-2.712
-7.952
20
9.664
-2.616
-3.44
3.848
-0.44
-3.272
-19.656
-3.984
-11.728
-7.6
-12.864
-2.816
-4
-3.752
0.28
5.392
-4.184
7.456
8.472
1.8
18.872
5.328
0.48
6.568
-8.2
-2.744
-4.52
-15.56
-10.904
-11.72
-1.704
-0.856
-8.512
-5.528
0.4
-7.096
-1
5.36
3.952
2.52
-8.936
-2.016
-3.808
-10.888
-14.48
-13.624
-10.648
-5.136
0.24
-10.4
-16.272
-1.472
3.28
7.448
0.28
-2.688
1.096
-6.568
12.328
0.48
-8.856
-4.664
-0.64
-15.848
-4.76
-1
-1.536
-5.416
-13
2.2
-3.936
-0.544
0.504
-4.376
-12.6
-15.168
-7.48
2.696
-1.416
-0.44
-4.88
10.528
-14.792
1.488
-13.48
-12.744
-13.936
-22.016
-4.992
-9.12
-13.008
2.496
-8.144
-5.536
4.52
-4.136
-5.248
-0.04
-11.472
-5.8
-19.872
-14.544
5.608
1.864
-4.52
-9.384
-18.776
-17.344
-14.072
-7.36
-9.736
-3.888
-8.184
-9.056
-6.68
-20.248
13.08
-6.04
5.816
7.32
-3.656
-2.856
-8.328
0.28
-3
-7.192
2.616
-10.992
-2.96
-7.44
-7.272
-7.696
5.928
-6.704
-10.16
-0.168
-2.816
-0.008
6.64
-2.32
0.392
6.344
-11.32
2
-0.44
8.984
-4.28
-8.208
-14.696
0.8
7.016
1.48
-2.848
-22.16
-0.44
-7.168
-14
0
-4.376
-4.04
-4.816
-7.984
-0.224
-10.64
-9.64
-11.488
-16.76
-18.848
-9.56
-12.56
-13.128
-10.928
2.968
-7
6.2
-9.376
-7
-8.296
-9.368
0.28
-4.56
-3.848
-5.352
-17.488
-3.88
-7.856
-2.288
-11.928
0.928
-16
-9.016
-24.704
-8.208
-9.192
-2.84
-0.104
-3.368
-0.424
12.52
6.6
-2.24
-14.344
-10.464
-15.456
-7.68
-2.008
-5.424
-20.776
-10.584
-25.28
-3.304
-8.888
-18.984
2.648
-11.8
0.584
-0.92
1.928
1.784
3.16
8.04
10.312
-2.888
7.752
1.4
9.368
4.96
1.944
-10.936
-3.48
-16.384
-6.32
5.768
2.928
-0.04
2.344
-5.504
2
-0.584
-10.6
-12.592
4.08
-4.968
2.12
-8.8
-15.272
-5.872
-22.368
-13.048
-7
-7.576
2.768
-3.008
-12.616
-14.84
6.152
2.312
2.76
3.296
-1.88
-6.192
-2.912
-8.872
-10.328
-0.92
-2.608
-14.104
-4.808
-12.12
-4.36
-10.928
-12.944
-4.52
1.392
-6
-5.496
-0.704
-3.936
3.216
-7.08
-0.096
3.864
-5.504
2.896
5.44
-4.824
-17.224
6.536
-9.408
-15.76
-10.16
-16.144
-13.168
2.648
-1.6
-8.584
10.232
3.168
7.224
-0.6
-6.208
-6.44
-7.12
-2.144
-0.84
3.88
-16.472
-10.752
-2.512
-6.52
-20.136
-23.616
-13.784
-11.928
-4.96
-16.312
-13.512
2.984
-0.064
8.2
2.184
5.352
-13.016
-4.792
-1.8
2.944
10.616
0.28
10.048
-9.68
6.552
-3.192
-1.192
-9.064
-6.92
10.72
2.416
-11.432
-3.92
3.72
-4.784
4.328
8.568
-6.704
2.44
-1.08
-7.656
-6
-8.488
-7.4
-4.696
-11.312
-2.224
-5.04
-5.08
-11.824
-12.728
-7.08
0.624
-9.76
13.264
-3.736
-12.032
-10.144
-12
-8.592
-9.696
-3.016
-7.152
-11.88
-0.304
-6.712
-6.056
-4.528
-16
3.712
5.848
-3.136
5.928
-1.28
-8.424
3.336
-5.928
-0.952
-5
-15.168
-11.208
-8.248
-12.016
-7.24
-5.376
-18.08
-8.088
-7.384
3.84
-13.992
-9.168
-7.416
3.152
-5.2
0.76
-10.072
-3.752
-8.176
-9.72
-10.512
-7.968
-8.92
-9.736
3.72
-1
-11.344
-10.416
4.744
-0.84
0.648
3.952
2.616
0.216
-2.28
-1.832
2.768
0.656
2.608
1.2
-2.72
2.488
-8
-15.696
0.4
-18.368
-12.208
-1.216
-4.336
-1.8
-3.072
6.76
4.12
-1.856
1.24
3.504
-10.976
-6.472
-6.88
-4.36
-1.512
-2.44
-12.008
-16.624
-12.6
2.888
-12.696
-13.672
-7.584
-20.36
-18.656
-1.832
-9.128
1.36
-7.16
3.768
6
7.688
2.448
8.96
7.048
5.256
6.144
-3.44
1.4
-7.488
-3.592
-10.672
-2.96
-1.8
-3.368
-0.808
24.456
-58.936
-34.76
-9.12
-10.184
-10.632
-0.016
-12
-5.376
-0.392
-17.12
-8.72
-7.16
-8.136
-2.456
3.312
-2
-10.72
13.2
4.544
-1.424
2.528
-1
-7.424
-2.192
-9
-1.536
-10.4
-7.728
2.656
-12.688
-17.952
-11.04
-10.304
5.12
-10.248
-22.688
-1.76
-4.84
-11.872
-5
0.12
-18.16
5.968
-2.448
0.416
8.416
0.8
1.792
-9.336
3.904
-15.728
-5.84
-2.096
-3.072
-7.672
-3.528
-5.32
5.72
-6.88
-18.24
7.464
2.48
4.096
-3.192
-16.912
-7.68
-10.04
-15.92
-2.024
-8.176
-11.648
-8.6
-8.792
-0.048
-3.72
-5.736
0.2
-12.88
-15.208
7.544
-2
-3.84
6
-10.52
-4.952
-6.784
2.16
-3.84
-9.136
-0.224
-15.128
-21.76
-9.04
-26.616
-14.52
-11.864
-7.8
-6.872
-3.432
-12.928
8.088
1.52
-14.44
-5
-15.032
-3.096
-7.36
-11.872
3.472
-0.016
-15.736
-11.08
-14.264
-10.328
-6.752
-13.072
4.32
-0.04
-7.432
1.664
-0.52
-4
4.088
-1
-3.272
-13.92
3.8
-4.12
-8.28
-11.448
-3.84
-10.4
1.064
1.616
-13.152
-5.888
-12.52
-10.432
-10.616
-7.664
-5.848
-2.8
-3.768
-1.288
10.944
0.664
-7
-5.76
6.232
-2.144
-2.152
-9.92
-11.288
-3.688
-7.616
-8.952
-7.04
-11.248
0.608
7.112
5.264
1.32
1.768
9.976
9
-5.736
-12.08
-9.896
-3.224
7.544
-9.632
-7.8
-15.704
-14.56
-10.248
-8.04
-7.56
-3.856
-10.928
-8.496
-0.736
-1.08
3
-8.432
-3.528
-12.872
2.56
-1.224
-7.952
-4.088
-19.104
1.2
-5.248
-13.672
-8.744
-8.464
-2.2
-5.552
-1.992
-6.912
11.92
-2.08
-2.936
-10.112
-3.192
-5.344
2.16
-17.632
-19.856
9.784
-14.216
-15
-7.336
-12.6
-14.04
1.624
1.88
-3.288
-4.368
6.96
2.312
7.8
6.536
4.608
7.232
2.128
-0.88
-11.672
-5.656
-11.952
-13.384
-15.6
-7.256
-5.408
-13.312
-0.096
-0.92
-1.152
-5.992
0.712
5.024
6.8
2.376
-1.528
3.44
-1
-3
3.784
3.104
24.832
6.888
-7.08
-7.528
-10.96
-2.632
-3
3.72
-8.016
-0.368
2.272
8.112
2.12
-7.112
3.232
0.632
0.136
-7.32
-10.424
-7.296
-3.728
-6.808
-4
-26.616
-12.864
-13.872
-19.808
2.6
-6.304
-10.64
6.08
7.504
3.12
-0.776
-1.816
7.12
-1
-18.36
-15.072
-8.424
-10.912
7.56
-19.4
-17.8
-1.112
-10.896
5.848
-5.4
-10.016
0.224
-10.84
-0.904
0.8
-9.048
0.896
-3.168
-4.896
-9.68
-0.176
-4.984
-12.712
-8.384
-15.28
-12.936
-19.192
-9.064
-13.888
-3.68
-9.128
-2.792
-11.96
-12.96
-3.4
-13.968
-7.04
-3.824
-8.184
-9.84
-7.248
-15.208
-9.76
7.312
-9.04
-13.072
-9.024
-11.904
-9.352
-1.08
-13.664
1.704
2.624
-4.2
-2.48
6.592
-3.544
8.032
-9.832
-2.6
1.608
-15.264
-15.28
-20.96
-8.64
-18.776
-12.872
6.872
-14.224
-7.84
-5.336
-8.008
-0.536
-8.808
-5.72
1.944
-3.184
-1.392
-11.024
-8.92
-16.256
-7.344
-0.408
-2.76
-2.6
6.568
-1.52
-7.768
-9.928
3.2
-4.296
-4.04
2.392
-1
-5.28
4.984
-6.752
-12.424
8.112
6.28
-12.16
-7.224
-4.312
0.288
-17.64
-13.696
4.968
-4.48
-10.144
-10
4.856
-14.176
5.416
-4.272
7.68
3.792
-5.32
-5
-7.024
4.28
-4.248
-10.576
4.752
-2.312
-2.76
-3.68
-5.448
0.368
-1.12
-7.8
-22.952
-11.496
-9.024
-11.912
-1.6
-7.512
-2.112
2.528
3.16
-15.48
-5.656
-9.216
-5.688
-6
-14
-14.64
-13.416
-2.408
-13.312
-5.72
3.744
-5.064
-10.296
-12.104
3.44
3.672
6.44
1.304
-1.52
-0.4
-14.416
-0.968
2.928
-10.552
-10.8
-9.376
-10.472
-8.216
-3.848
-4.12
-11.992
-1.048
-3.144
-8.568
-17.68
-4
2.136
-11.472
-22.064
-15.76
-14.776
-7.72
-10
-11.656
-14.6
-6.648
-15
-5.792
-1.208
3.72
-5.328
-10.232
-5.08
-8.064
2.28
10.36
0.416
-1.672
-5.176
-16.68
7.744
-3.248
-5.32
-8.048
-7.8
-7.824
1.56
-1
-5.744
-2.91E-11
-2.456
-8.48
-10.384
-1.096
3.12
-1.968
-0.048
-4.84
-2.608
-9.68
-6.608
-7.992
-11.728
-15.72
-16.2
-8.976
-12.376
-11.32
-1.048
-11.2
0.584
-4.264
-2.904
-5.424
5
-9.568
3.08
-3.44
-1.808
-6.8
-0.44
-7.664
-1.464
-4.272
-7.92
-6.664
-8
-3.496
-6
-6.72
3.144
-4.896
5.136
-1.648
0.04
-0.976
12.104
21.336
8.656
3.4
-8.76
-10.816
-4.44
-1.944
-9.44
-4.488
-0.144
-13.512
-11.896
-1.2
-2.456
-2.848
0.584
13.08
3.36
7.032
-7.128
-9.512
-11.424
1.04
-16.048
1.928
-0.824
-2.224
-15.2
-19.688
-15.008
-3.632
-12.856
-6.48
-4.12
-3.264
-20.464
7.664
0.8
-11.208
2.24
7.144
0.848
1.96
11.808
1.248
-5.944
-1.616
-4.56
-7.96
-1.192
-7.448
-10.584
-4.6
-17.552
6.096
-9.416
-10
-7.2
8.112
0.472
2.84
-2.936
-4.76
-1
3.944
-3.848
1.36
-4.76
-19.368
-12.488
3.216
-7.464
3.4
-1.296
-6.968
-5.112
-5.512
1
13.456
-6.752
1.664
1.944
3.88
-7.32
-14.048
-14.184
-11.392
-8.96
-2.296
4.616
-3.152
-1.224
-7.28
-6.776
-3.168
-0.704
-3.728
1.64
3.768
4.992
-7.288
-13.52
7
-9.712
-4.712
-3.712
5.808
0.32
-4.272
-1
-0.776
-8.064
-6.16
6.36
-2.544
-9.992
4.736
6.96
-4.144
-1
-2.912
-4.472
-2.04
-3.984
-5.552
6.104
-5.544
-4.4
-4.248
-6.52
-11.312
-6.432
-0.56
-3
1.68
-2.168
12.632
13.72
1.192
-10.296
-3.112
6.36
-10.92
-1
0.84
-2.128
-4.56
-8.28
-3.16
-10.488
-8.344
-6.184
-6.6
-16.208
-5.96
2.352
8.696
-0.92
-0.688
1.624
4.056
8.808
5.4
-7.424
-0.904
-6.976
-10.928
-10.2
-14.984
2.488
-4.168
-9.448
-5.12
-11.856
-0.456
-1.928
2.136
0.8
-0.24
2.04
-13.024
-14.96
1.88
-9.648
-2.872
5.76
-0.552
1.12
-0.64
7.008
-14.672
-5.552
-0.08
-11.16
-7.088
-7.32
-5
-0.24
-0.824
2.152
-3.52
0.024
-4.8
9.784
16.168
-8.552
-0.04
-1.2
-27.768
-10.68
-20.24
-6.84
-20.8
-3.64
-7.384
-9.304
1.528
-1.92
7.024
9.392
-4.936
4
-1.72
-6.848
0.136
-18.616
14.088
-5
-9.336
-9.152
-5.848
-10
-4.12
-13.832
-15.632
-7.92
-18.936
-7
5.832
-13
-1.512
-4.936
-9.36
-4.536
-7.528
4.824
-3.68
-9.4
-16.968
0.936
-18.128
3.088
-6.4
-10.256
2.968
-7.312
-2.216
0.64
-2.728
1.576
-4.504
-16.424
-11.88
-3.448
4.88
5.112
-12.592
-1.92
9.776
-11
-17.04
1.664
-10.44
2.584
8.208
6.696
8
-1.8
-0.864
-3.488
9.84
1.96
-7.92
14.56
-8.04
-2.296
0.328
-4.48
-15.56
-6.808
-7.048
-2.216
14.24
2.488
-13.92
0.32
0.32
1.88
-1.08
4.016
-2.032
0.376
3.6
3.464
-1.568
-3.584
-9.84
-7.2
-9.664
-5.896
-18.952
-9.84
-7.36
-9.896
-12.824
-18.432
-2.36
-5.08
5.736
1.672
-2.072
5.976
-2.68
-4.744
-4.032
1.072
-7.016
-11.8
-13.176
-6.168
-4.112
-8.024
3.76
-4.472
-8.504
4.632
-1.608
12.64
-2.128
3.744
-6.248
-1.888
-2.4
0.84
-6.008
-2.336
-15.592
-2.76
-5.92
-14.288
-5.52
-14.664
-8
-5.712
-22.024
4.544
-3.112
-9.8
-1.88
0.688
-7.464
-3.408
-7.32
-16.248
-1.544
-13.24
-12.328
-6.36
-5.536
-14.632
-21.096
-6.296
-9.64
-10.072
-3.784
7.024
-3.264
6.6
-0.736
-7.6
9.096
-3.056
0.68
-6.608
-7.64
3.832
-10
-14.72
-11.368
-22.176
-4.472
-21.568
-4.76
3.84
-12.24
3.04
-11.44
-4.56
-10.92
2.208
-6.352
1.352
-17.8
-8.896
-0.536
1.648
-6.264
-12.68
1.992
-11.472
-11.84
-4.992
-7.48
-4.712
-7.904
-6.592
-7.928
6.76
-6.16
-0.968
-3.192
-0.616
-2
4.224
-5.192
4.536
-13.928
-2
-12.184
-5.784
-15.28
-9.792
-14.52
-7.56
-11.128
-17.952
-5.192
0.08
-1.488
-15.832
-1.328
1.192
-7.8
-3.84
-9.84
-0.568
-1.192
-7.24
-5.392
-12.344
-7.224
-13.264
-2.8
-11
-1.936
-6.112
157.89
-64.08
-26.944
-18.96
-6.632
-12.232
-7.88
-16.08
-8.752
-3.456
-7.776
-3.88
-5.296
-6.384
-3.016
-7.816
0.44
11.736
-2.56
-3.712
-4.424
-5
8.904
3.096
-5.688
-6.424
-9.64
4.576
-4.648
-9.528
-8.272
-8.4
-7.224
-17.24
-23
-15.704
-12.4
-17
-10.344
-7.632
4.384
3.8
-4.032
7.664
1.272
-8.368
-1.6
0.976
-12.52
0.72
-12.568
-11.88
-7.488
-17.576
-6.752
-24.744
-12.56
-5.096
-0.776
-2.232
-19.208
-15.2
-3.448
15.664
-5.424
-7.32
-8.84
-3.544
-2.208
3.224
-2.168
3.4
-24.792
-10.92
-14.84
-8.104
-14
-0.192
-5.736
-6.352
-12.32
-3.88
2
-3.048
-2.976
1.92
1.8
0.68
-4.08
-9.208
-14.184
-23.72
-13.288
-3.84
-8.48
-2.104
-6.6
-6.928
-12.176
-5.328
-8.128
-2
-9.32
1.296
-1.112
3.936
3.12
-10.872
-9.184
-5.344
-3.92
-18.12
1.368
1.656
-10.248
-5.536
-9.2
-14.08
-12
-5.632
-3.72
-3
0.088
5.688
1.272
-8.896
0.32
-17.504
-13.088
-2.76
1.752
0.64
2.672
-15.376
-8.88
-11.336
-8.36
-5.432
-12.84
12.336
2.968
0.56
4.656
1.576
-1.368
-19.232
6
-1.336
-10.328
-2.568
13.472
-2.76
-3.456
-4.928
-3.384
-6.504
-14.6
-5.72
-1.424
0.736
-10.112
-10.04
7.448
2.816
-1.048
5.56
-1.72
-12.92
3.552
-0.936
-10.088
-5.2
-10.248
-1.888
-5.872
-8
6.28
-7.296
-3.216
-6.832
1.952
-5.16
6.728
0.776
-2.656
-9.464
-5.92
-1.776
-18.52
-4.192
0.888
-5.56
1.912
-11.488
-10.656
-5.648
-2
-3.168
9.936
-3.56
-12.736
-5.88
-11.368
-2.584
-6.216
1.008
-3.68
-8.928
-6.048
6.736
-13.496
0.36
-0.008
-10.784
-13.944
-6.696
-8.24
-4.064
2.544
-1.056
-9.584
0.8
7.072
-3.52
-2.16
-8.088
-3.44
-0.552
-3.68
-15.984
-9.808
-0.08
-9.976
-6.472
-4.76
-8.096
-15.08
0.48
-9.664
-16.856
-6.416
-4.68
11.16
4.656
0.224
-4.76
2.8
-7.48
-18
6.552
-4.056
-2.36
-1.088
-4.456
-12.768
-13.448
-3.92
0.64
-4.752
-1.456
4.472
-3.88
2.544
6.696
-4.632
-1.712
-5.04
-4.112
-13.864
-6.096
-1.432
-3
-14
-2.056
-10.296
-8.536
-22.08
-5.56
-6.04
-1.696
-8.296
-1.52
-3.856
4.816
-19.232
-2.64
-10.64
-10.536
12.816
-20.688
0.176
-9
0.936
-10.112
-5.104
-15.976
-17.2
-20.528
-17.52
3.688
-7.352
-2.08
-6.192
2.36
-3.92
-2.152
-11.8
-7.44
5.984
7.24
-11.128
-11.4
1.712
-17.92
-12.232
-5.88
-11.08
2.208
5.44
-13.304
4.48
-1.2
-1.168
3.96
1.808
-6.856
1
-4.872
-3.944
-6.352
-10.472
2.92
-2.504
-1.312
-20.928
-15.784
-15.36
-10.672
-11.976
-10.152
6.312
-7.24
-1.552
-9.016
-2.488
4.344
-5.8
7.832
-2.568
0.536
-11.544
-8.36
-5.664
-0.152
-15.856
-6.064
1.76
-5.744
-5.232
0.344
-3.72
12.12
-2.152
9.24
8.928
1.856
-20.6
-8.352
-4.624
2.448
-20.016
-2.2
-9.416
-4.064
-17.72
-2.032
1.8
-11.12
4.864
-1.448
-6.608
-8.84
2.08
-3.752
6.64
-8.192
-10.16
-1.456
-2.224
-12.688
3.408
-12.52
-16.192
-21.976
-14.656
-5.76
-14
0.048
-4.56
6.848
5.968
-8.88
14.576
-2.64
0.232
-2
1.88
-7.056
-4.152
2.744
-6.376
-5.64
-6.16
-9
-11.864
-13.912
-16.08
6.928
-0.952
-5.832
-10.456
4.2
5
-3.184
0.968
-0.04
2.08
-6.88
0.392
-5.584
14.16
-11.68
-4.264
-9.744
-0.352
3.104
-8.16
5.84
-0.84
3
-0.552
-7.04
8.96
7.232
-0.392
4.184
3.8
-3.168
-0.96
-1.544
-3.12
-3.28
-10.816
-10.624
-10.76
-13.824
-14.6
-9.288
-3
2.736
-0.288
-0.52
-4.496
4.272
-3.832
5.504
-6.52
-3.04
-13.72
-14.016
-7.688
-1.8
-7.944
0.872
-17.024
-9
-7.88
-6.44
-16.808
-3.048
-7.68
1.04
-9.336
-2.112
-1.224
11.184
-8.96
-2
-1.84
-6.896
-6.632
-3.36
-4.824
-4.968
-5.152
-16.256
-16.2
-14
-9.52
0.832
-1.128
-11.72
6
-0.36
7.448
3.448
-2.92
6.344
-6.992
-7.12
-6.584
-2.64
1.544
-6.608
-10.296
-3.016
0.08
1.768
-10.288
-10
-1.24
3
-10.144
5.768
-1.552
3.08
1.32
2.288
-2.296
-1.936
-7.432
-2.56
-10.528
-7.456
-18.496
-10.032
-3.12
-15.376
-12
3.32
-3.088
-5.96
-3.896
-3.112
3.584
6
8.2
-2.248
-5.776
-9.848
-3.608
3.12
0.928
-3.224
0.336
-5.944
-11.92
-6.456
-2.792
1.472
15.312
2.12
13.424
13.112
2.744
10.112
-16.88
0.456
5.648
-4.656
1.016
-0.4
-17.384
-5.488
-3.44
-11.856
8.08
0.064
-2.32
-9.976
-21.304
-3
-5.216
-6.544
0.24
2.136
-5.16
4.992
-6.624
-10.264
-9.128
-8.16
-15.144
-23.576
-14.52
-20.176
-13.6
-5.576
-3.088
-5.768
-6.752
-15.56
-13.44
-2.448
1.904
4.096
-2.44
-7.488
-2.88
-4.552
-8.184
1.44
-6.216
4.672
-5.608
-14.952
-3.92
-14.312
-7.88
1.52
-4.024
9
-1.52
13.312
-7
14.896
13.44
6.088
-12.232
11.768
-0.768
-0.72
2.456
-11.608
3.488
-16.528
-5.2
1.952
-5.456
0.352
3.832
-16.2
5.696
0
-0.424
12.52
3
-9.328
10.616
-2.584
-16
-6.52
-7.152
-8.352
-5.936
-4.864
-9.24
-9.92
-1.456
-3.128
0.592
1.4
-6.376
-0.632
11.136
5.792
14.72
-0.952
-4.944
-3.312
-5.76
7.4
4.04
-12.704
-7.688
-12.488
-6.76
5.024
-7
-9.008
1
-1
7.368
-5.952
9.592
-1
1.68
-4.872
4
-6.68
12.768
-2.04
-1
-7.768
-10.48
-15.984
-14.2
-19.656
-12.92
-8.84
-9.528
-8.72
1.88
-1.376
-1.192
-9.168
8.96
2.576
12.784
1.808
-3.288
-2.28
-0.688
-14.84
-9.472
-11.624
-8.6
0.264
-0.368
-3.04
-2.864
-7.8
-5.704
-3.128
4.976
0.832
7.36
-7.872
16.424
-14.664
-8.776
-27.4
-2.048
-23.592
-14
-12.728
-18.48
0.736
6.744
13.968
-12.168
2.12
0.568
-4.216
5.48
14.28
2.8
-5.024
4.272
-8.056
-8.968
-3.32
-0.736
-3.592
-2.048
-16.768
-17.04
5.328
-5.752
-4.152
-4.888
5.24
0.68
5.456
1.336
5.032
-1.08
-0.08
-8.128
-8.424
0.664
-5
-1.432
-9.656
-15.416
-8.92
-3.08
-4.864
3.32
5.464
-10.656
-0.56
-5.056
-0.544
-5.136
-2.408
-1.4
-2.912
-2.656
7.416
-1
0.08
-3.896
-2.56
-8.104
-4.76
1.4
-1.048
1.264
-4.344
-9.296
-10.08
-6.44
11.536
5.672
6.48
0.92
-6.368
3.432
-1.768
-8.696
-18.28
-9.776
1.872
-12.232
3.112
-8
-3.376
-6.952
-9
-4.352
-14
5.76
0.544
-7.704
4.104
2.04
-7.12
-9.32
-2.728
-14.152
-4.96
-17.496
-6.096
-10.048
-1.72
-6.96
-10.16
-5.76
-3
-5.568
-6.72
3.96
-8.384
2.504
-0.344
-3.8
-8.056
-16.96
-3.56
-7.336
-5
-12.888
-4.128
-6.952
-3.192
-12.4
-8.536
-0.472
3.536
-1.28
-7
-23.328
-3.496
-2.608
2.952
-0.04
-5.568
-6.872
0.48
-9.008
-3.4
-5.632
-5.064
-13.888
-11.896
-13.88
6.912
0.904
-1.552
-5.072
-13.92
6.016
-1.12
-2.784
0.056
8.88
5
-0.776
3.688
-3.696
2.2
-4.776
3.008
-4.672
-6.712
1
-1.856
-10
-15.4
-3.232
-8
-12.016
-3.36
-1.392
-0.592
0.56
1.64
-7.52
-1.4
-3.8
6.92
3.376
-2.024
-5.64
-5
0.96
-6.112
-5
-3.896
-10.608
-6.8
-9.24
-7.368
7.592
10
5.28
-3.536
-5.176
-9.328
-6.104
2.76
0.456
-10.104
-4.704
-19.8
-1.16
-4.904
3.92
-0.36
-6.776
1.36
-5.632
13.832
7.608
-5.76
2.6
-6.936
-0.968
1.648
-6.368
1.72
-7.504
-10.72
-9.272
-2.832
-2
5.56
10.448
-0.024
1.704
-9.64
-7.512
-11.408
3.152
-0.184
5
3.224
5
5
-7.136
-6
4.944
-1.44
-15.048
-1.08
0.28
-4.568
-3.344
-16.792
-18.68
-13.76
-13.104
2.72
-1.88
10.728
6.68
-4.68
-0.16
-1.184
-5.392
-7.68
-3.04
0.28
-7
-0.752
-12.2
-18.024
3.168
2.944
-18.904
92.12
-53.088
-56.192
-22.056
-6.624
-5.4
1.392
2.504
3.12
-6.64
-7.56
7.384
-2.848
0.256
-1.712
-7.08
-0.768
-0.416
-7.56
4.856
-1
-8.472
0.288
16.416
8.696
2.68
-4.256
5.976
-2.008
-5.64
-6.76
-5
-12.336
-0.872
-3.624
6.28
-4.624
4.08
10.864
3.176
-8.44
-4.936
-13.44
4.416
10.912
4.8
19.264
5.888
-1.944
5.488
-11.44
4.856
-4.32
3.752
-7.84
-9.52
-8.816
-20.4
-11.528
-12.872
2.96
-21.744
-17.648
-10.272
9
6.36
-3.672
-4.088
-9.96
-8.352
-10
-13.104
-8.568
-7.176
-8.264
-8.92
-9.752
-17.056
-4.92
-10.992
-13.48
0.712
-9.856
2.144
1.856
13.08
6.488
-7.976
9.112
-0.872
1.12
6.896
7.264
4.992
-4.864
5.4
1.424
-1.736
8.232
1.544
-9.28
-5.888
-6.256
-5.176
8.68
2.68
-5.592
-12
-12.12
-16.552
-11
-5.264
5.52
-4.64
-15.248
-8.88
-5.744
-11.376
-9.848
-15.528
-18
-9.456
-15.064
-1.944
13.896
0.68
-4.296
5.912
-1.896
0.912
-13.36
-7.328
5.128
-9.152
8.784
-14.44
-9.336
-2.224
-8.6
-5.592
-7.32
-5.536
-9.144
-2.096
1.856
20
-2.424
3.328
-2.128
-10.04
-5.76
-4.528
0.68
-10.528
-1.048
-10
-9
1.704
1
-8.376
6.4
6.392
-2.792
12.6
10.264
12.6
7.928
-1.616
-1.064
-2.872
-10.8
-1.984
6.672
-15.312
-6.824
-6.04
8.216
-5.072
-1.584
-2.68
-3.72
-2.728
-8.312
17.952
4.28
9.64
-3.872
-3.952
-2.552
-10.88
0.4
-5.624
-7.656
-12.392
-10.24
2.6
-5.968
4.432
8.104
3.592
-0.6
11.256
-1.416
1.216
2.352
-7.08
-0.072
-1.952
-6.904
-8.216
-8.68
-15.328
2.384
-3.264
-13.504
-6.16
-4.184
6.856
-3.536
-7.752
8
-2.792
-6.784
5.512
-0.208
7.64
1.104
10.68
0.936
-9.48
-0.96
-1.256
-5.824
-19.328
-8.368
-7.88
-5.368
-11.152
-6.896
-8.664
-9.12
-8.216
0.808
0.032
-2.24
-3.4
11
-7.208
-12.552
-3.976
-1.84
-0.32
-4.272
-14.264
-9.232
-9.96
0.392
20.368
1.76
-11.664
0.12
-5.136
-4.08
0.944
12.456
8.84
-2.616
-5.56
-12.272
-6.856
-15
-7
-3.136
-19.848
-12.616
-21.72
-15.984
-15.976
-10.08
-5.408
-13.24
-10.696
-7.12
5
-2.032
-7.28
-0.16
10.136
-1.496
6.968
5.8
-2.968
-4.84
-21.48
-10.152
-4.8
-13.504
-10.224
-4.312
-5.88
-1.64
-14.904
-3.104
-1.6
10.584
5.44
-11.736
-17.76
-4.288
-8.488
-4.12
-20.744
-8.952
-6.32
-12.664
-4.2
-20.712
-18.488
-17.696
-3
-1.6
-10.72
-10.536
-2.176
7.632
-8.64
-11.384
-6.056
-3.216
-4.824
-7.56
-1.144
-13.024
-14.664
-4.216
-4.48
-15.328
-13.84
-11.04
-7.816
-0.48
-11.776
-7.896
-2.512
-9.52
19.4
-14.296
-11.168
-4.72
-13.504
1.04
-3.664
4.616
-13.76
-18.2
-9.44
-11.152
-3.288
-6.104
3.272
-2.28
9.32
-6.256
1.28
-0.536
7.8
8.744
8.248
-1.592
3.96
0.6
-17.504
-14.544
-8.888
-6.008
-16.36
-19.296
-0.36
-14.448
0.984
0.12
-3.952
3.488
-5.032
-12.584
6.08
9.112
-7
2.96
6.424
-16.04
-4.616
-3.288
-17.192
7.848
-18
-13.904
-6.808
-2.72
0.312
-19.36
-6.136
-0.328
-13.544
0.272
5.8
12.416
-8.152
-4.88
0.64
1.4
-6.304
6.16
-5.048
-14.152
-11.12
-14.832
8.768
-11.232
-1.848
-8.4
-6.256
-3.664
12.784
-2.216
3.68
0.12
4.992
-5.672
7.208
3.16
-0.632
-5.744
-7.944
7.104
5.2
-4.16
5.744
-4.384
-16.328
-14.48
-14.416
-6.464
1.352
0.408
-4.6
-0.44
-2.512
-5
-12.408
-7.48
-13.384
1
-14.976
-9.664
7.52
-17.416
-9.952
7.024
0.64
-0.6
-13.504
-4
-2.736
13.376
7.2
-2.184
-7.104
9.472
-9.656
5.2
-4.832
1.872
-2.024
7.088
9.88
-6.672
-6.32
-9.952
-12.616
-1.8
-5.256
-8.824
-3.088
4.552
-1.28
-5.16
-8
-8.392
-0.512
-9.16
-9.296
-1.344
-16.376
-7.992
-12.2
-13.088
-3.792
-7.28
-6.984
-18.88
-0.264
-5.456
7.656
-14.464
-1.24
-3.312
-4.384
1.576
-3.472
6.2
-0.48
-7.936
-10.008
-14.696
-11.44
-14.08
-20.984
-15.328
-20.472
0
4.192
-24.792
2.168
8.536
12.04
5.272
-1.352
-8.848
-6.184
-4.4
-4.28
-0.208
-0.504
7
-7.36
0.768
6.344
-9.184
2.208
10
-3.048
-7.888
8.584
-1.24
1
9.488
2.184
2.936
3.08
-2.16
-1.12
-0.608
-13.848
-1.952
-8.36
-15.824
-3.912
-3.888
-9.36
-10
4.424
-14.952
-9.04
-2.328
-2.44
-1.168
-11.72
-0.216
-3.408
3.4
-6.448
1.504
-8.984
-5.144
-5.84
3.64
-5.224
5.488
3.992
7.4
2.784
-9
-8.376
-13.064
-4.76
1.992
1.056
-6.208
-7.752
-5.68
3.408
-12.808
-6.512
-15.24
-9.4
-14.776
-13.176
-12.256
-2.992
-4.6
-10.32
-1.808
-14.952
-2.032
6.04
-7.824
2.768
-2.704
-10.64
-0.36
2.68
-4
3.464
-6.928
-1.24
-2.784
0.784
10.224
1.744
7
18.112
4.416
-1.56
-5.896
2.84
1.176
2.96
-3
2.392
-2.68
-4.392
-3.736
-1.392
-5.224
-13.96
-5.456
-1.384
-7.624
-13.88
1.56
-8.192
-10.704
-18.888
4
15
-2.856
3.272
-9.56
-0.304
-2.2
-4.168
-4.352
-3.928
-9.544
-4.52
-12.552
-6.936
-10.888
1.344
-9
-6.304
-8.736
-9.776
-1.176
4
14.976
-1.056
4.416
1.848
-5.4
-5.24
-4.52
-8.344
-11.528
-12.28
-16.56
-13.176
-3.096
0.32
-4.04
-3.632
-8.776
-3.936
-0.024
-13.76
-3.84
-5
2.256
-12.44
-14.24
-3.2
-1.048
-11.52
-10.592
-15.6
-10.032
-0.496
-15.912
-7.856
4
-9.256
2
7.52
7.808
13.32
5.712
-0.736
-1.312
-0.856
2.88
-0.68
3.272
-9.848
-17.496
-14.56
-18.368
-9.072
2.44
-8.72
-7.8
-3.112
-5.656
-13.488
8.712
-1.44
-9.44
-13.616
-8.76
4.064
1.6
-12.36
-3.12
-8.464
2.824
-18.24
2.216
7.496
-6.536
-17.56
-4.12
3
-5.032
3.04
6.288
6
-1
-3.792
-1.504
-2.984
-0.64
3.176
-8.456
-4.656
-1.32
-11.04
1.328
2.12
-7.728
-11.808
-2.24
6.888
0.552
-2.664
14
6.28
-0.616
-1
-6.424
3.336
-2
2.568
-7.96
-6.144
2.08
-7.88
-7.56
4.952
-4.776
-9.64
1.88
1.168
-8.488
-2.872
-5
4.76
13.52
-1.736
-0.096
-2.704
9.8
-5.984
0.056
-14
-10.872
-4.2
-0.256
-13.928
-11.248
-3.336
4.92
-10.224
-15.216
4.84
-0.32
1.88
3.824
-0.328
-8.008
-2.408
3.76
-14.84
-1.128
-5.448
-1.672
-18.56
-23.504
-8.512
-3
-2.704
-9
-1.48
-14.984
-8.176
-2.736
-1.72
-1.432
-0.832
-4.16
-15.472
-6.84
-16.288
-11.784
-7.024
-10.216
-10.4
-6.656
-8.08
-2.544
-9.376
-3.44
0.184
-0.912
-7.008
9.416
-5.4
1
-2.344
3.792
-8.168
-8.6
-5.888
-9.04
-12.968
-9.776
-4.52
-7.848
-8.472
-16.088
-9.088
-2.32
-1.944
-2.832
-8.608
4.952
-5.92
-14.648
-7.816
-0.296
-12.28
-5.8
-3.04
-12.416
-0.056
2.84
-5.24
-0.144
-6
-12.552
-10.36
-1.88
2.016
-6.008
4.392
2.392
0.04
0.52
8.16
8.96
-2.136
0.4
-0.96
-11.296
5.408
-4.528
-18
-6.472
-6.424
-11.408
-11.04
14.88
-1
-1.272
-5.536
-0.864
-3.12
1.64
1.76
-0.256
-5.392
1.36
-8.608
-18.448
1.048
-10.12
-9.96
10.856
-5.944
-4
-1.392
-10.4
-0.272
-7.336
-1.096
-4.312
-2.12
7.584
-4.856
-3.008
-2.472
-16.6
-4.176
-6.24
-15.232
-8.512
1.12
-8.096
-8.984
-3.256
3.552
-1.04
-8.168
-4.232
-2
-16.592
-0.6
-6.728
-10.44
-9.648
-2.736
0.2
1.312
-4.32
-5.08
-20.32
-7.64
-16.144
-14.76
-11.496
-0.784
0.92
1.48
-12.432
-3.152
1.368
2.32
9.592
0.088
8.56
-3.208
-4.2
-13.072
-6.44
-3.184
-3.336
9.44
-4.224
-1
-8.16
-1
-1.24
-1.536
-18.952
12.624
3.72
10.84
2.48
-4.744
-7.96
-1.976
-1.2
-15.216
3.968
-3.48
-7.768
-18.8
-6.52
-18.544
2.168
-1.048
8.92
7.376
35.4
-45.288
-35.144
-18.12
-12.64
-9
-6.608
-8.168
-1.4
-10.456
-5.608
-10.952
-9.136
-12.4
-1.264
-8.576
-10.576
-7.664
11
1.232
-5.52
-9
4.08
3.24
2.424
7
-1.456
-5.592
-4.12
-7.472
3.064
0.624
-1.704
-8.24
-3.928
-14.976
-2.136
-14.176
-6.12
-6.032
4.608
7
2.152
-4.8
-0.008
-2.44
-9.088
-1.392
-12.36
-5.096
-11.64
-10.752
-13.472
-12.16
-6.808
-9.224
-13
-5.488
-7.56
-1.968
2.888
0.872
2.88
-8.56
-9.968
4.392
-1.048
3.312
-5.6
-11.384
1
-6.088
-9.408
-7.4
-12.12
-11.944
-11.512
-5.992
13.92
-0.856
-10
6
3.288
7.8
18
16
4.984
4.192
0.56
-8.776
-15.176
11.984
-2
-6.8
-3.168
-5.304
-6.328
-5.664
-7.72
-8.88
-1.704
-6.032
-13.712
-3.08
1.616
4.648
-15.864
-0.36
-5.24
-12.056
-5.416
-1.64
-9.024
-9
-14.056
-19.904
-6.48
-6.256
-11.2
-2.456
-5.232
-12.664
0.864
10.24
-5.088
-3.68
-7.84
-0.784
-2.68
-3.296
-0.248
-6.304
-13.56
-17.08
-3.16
-3.008
-10.96
0.848
-2.28
4.496
-3.152
-4.848
2.096
13
-4.192
-2.768
-6.136
1.576
-0.04
0.152
2.664
4.144
-8.296
0.88
-7
-13.064
-10.376
-5.64
-8.76
-5.48
-6.76
-2.592
-0.704
4.96
1
-7.992
6.792
-9.568
-2.2
-9
-6.328
-7
-16.784
-21.8
-13.248
-9.144
-14.664
-2.632
-4.68
0.36
1.624
-1.232
13.568
9.24
6.032
-9.128
5.488
-10.336
-3.16
-2
-11.672
-1.392
-9.648
-9.8
-4.552
-0.512
-4.44
4.224
-1
1.496
-5.208
1.568
7
0.88
14.352
0.952
0.808
12.488
-2.4
4
-12.328
-4.096
-8.056
-13.52
-10.84
-11.912
-9.04
-8.032
-17.8
-6.832
-7.648
-17.72
-9.376
-3.96
-3.112
-1.104
-8.664
-8.032
-3
-4.256
-12.176
-7.208
-5.624
-6.32
-17.216
-13.176
-2.784
-11.832
-13.76
-9.352
1.128
-3.776
-5.248
-0.2
8.416
4.728
3.224
1.952
1.8
-3.264
-0.456
-7.712
-3.32
-6.64
-11.28
-7.864
-4.728
3.64
-0.88
-0.52
-8.152
0.352
-11.408
-2.68
-1.384
3.552
-1
-6.664
-1
-1.144
2.328
-9.712
-13.344
-7.64
-12.408
-4.704
7.464
-11.544
-9.56
-1.584
-5.816
12.248
4.656
-2.84
-5.696
3.76
4.048
2.648
-5.72
-12.968
-4.44
-13.48
-17.696
-23.2
-6.72
-24.48
-22.936
1.728
-11.56
-19.176
-12.96
-6.744
-6.688
5.72
2.368
-3.208
-1
-8.512
1.08
-17.584
-9.696
-13.616
-2.552
-1.28
-11.168
-19.232
-17.96
-8.112
-1.8
3.416
-3.512
-15.072
-8.736
-3.28
-2
-13.264
-4.272
-11.336
-12.4
-9.784
-16.736
0.264
-2.072
-1.84
-12.824
-1.24
-14.152
-10.128
-9.28
-15.96
3.088
-14.552
-6
-1.46E-11
7.168
4.568
5.416
-3.168
4.52
8.984
13.192
-3.744
-0.776
-7.48
-17.056
-10.176
-2.584
-2.104
-3.92
1.216
-3.496
-13.288
-10.12
6.96
-9.552
-7.784
0.744
-8.504
-8.8
-13.328
3.648
-13.272
-10.064
-4.88
-8.176
-1.728
-8.632
-12.216
-15.44
-8.032
1.632
6.576
5.448
4.56
0.2
-4.768
9.384
-14.696
-3.44
-9.656
-7.568
-8.328
-13.76
11
-21.096
-7.904
-8.144
-26.048
-8.92
-13.44
-1.344
-3.848
-9.52
2.2
2.192
-3.184
6.624
-9
-3.68
-7.536
-2.208
-8
-7.176
-8.84
-8.936
-23.544
-10.584
6.784
-13.8
-9.512
-14.928
-3.88
-11.216
7.2
-5.248
9.68
8.328
1.576
-16.96
-22.28
0.536
-10.768
-9.848
-2.36
-8.128
-14
-3.192
-13.664
-10.56
-15.464
-18.464
-14.864
-13.52
-9.2
-8.864
-3.92
-5.984
-6.896
-6.16
-0.432
-2.112
-11.328
-5.52
4.48
10.984
-17.976
-10.048
-11.216
-13.92
6.312
-5.784
-6.224
-4.368
4.36
-4.712
-2.104
4.488
-1.448
6.2
-1.464
-5.832
-15.928
-6.624
-9.92
-2.808
-6.424
-15.064
-6.032
-3.84
-20.464
-11.88
-17.64
-2.464
-18.28
-1.576
-5.92
9.04
-3
-9.2
9
-2.656
-9.264
2.496
-8.8
-10.784
-30.712
-6.008
-9.92
-6.76
1.416
-9.912
-3.84
-10.784
-3.76
3.672
2.512
-1.392
-1.472
-9.04
-18.976
-16.456
-19.04
-11.68
-14.84
-21.272
-29.416
-10.056
-15.52
1
0.472
0.08
-8.288
-24.968
-9.28
0.592
-3.344
-1.472
-7.248
-6.04
-14.664
3.576
0.88
1.392
1.56
-8.984
-7.264
-14.688
-1.648
-4.6
-6.008
-11.44
2.96
-7.152
-4.6
-6.264
1.848
10.936
-6.432
-11.52
-0.168
-6.216
-18.504
-3.52
-10.4
-3.912
-11.208
-3
-14.256
-21.6
-5.552
3.968
-9.128
-0.12
-1.88
4.008
0.536
2.824
4.056
-7.6
-4.864
1.52
-3.792
-14.896
-15.24
-13.816
-1.792
-1.752
-6.32
5.32
-10.992
-1.832
-7.784
-20.856
4.96
-2.344
5.16
-5.624
-5.68
-8.32
-2.432
3.984
-5.576
-13.896
-10.6
-15.168
-18.216
-15.28
-15.168
-13.44
-0.576
-10.68
3.68
-1.032
-1.36
3.384
-4.536
1.328
6.008
-3.76
-8.424
-5.16
-2.856
-2
-11.2
-9.352
-5.032
-9.664
-2.016
-7.2
-9.48
-1.544
-8.776
-5.016
-2.36
-2.144
-5.048
2.504
-1.48
-7.24
-13.36
-9.504
-6.792
-3.64
-2.8
-2.456
-10.92
-11.32
-7.272
0.52
0.536
-12.264
-1.192
-2.384
-7
-1.952
6.944
-11.552
-1
-3.24
-24.12
-12.288
-6.848
0.136
-2.84
-8.528
-4.424
0.504
-7.64
1.56
-13.52
-7.184
-3.408
2
4.56
7.936
8.608
-0.792
-6.912
3
-7.72
-1
-1.128
-8.472
-2.08
-5.416
-12.104
-10.744
-6.568
-4.36
-2.528
-18.792
-6.76
3.312
6.88
-4.904
-1.744
6.68
1.448
-15.16
-5.288
-8.976
-5.784
1.352
-10.6
-6.792
2.56
-10.28
-8.92
0.84
-4.248
3.416
0.24
-4.976
-7.48
-7.216
-1.784
-4.12
-10.352
-1.4
-2.824
-5.568
-14.096
-8.568
-10.88
-6.776
-11.104
-15.016
-10
-7.6
-2.352
-12.824
-7
0.624
3
-5.664
7.016
2.888
12.552
-2.52
2.512
-1.12
-12.224
-4.088
-6.96
-8.312
-5.328
-12.536
-16.56
5.16
-18.432
-1.688
-13.44
-14
-12.8
-8.24
0.792
-9.664
5.992
-14.6
-7.912
-7.816
3.84
-6.624
-4.4
-7.72
-6.504
-11.392
-13.448
-5.04
4.704
-1.696
-0.992
-11.848
6.2
-5.544
-11.28
17.6
4.24
-1
5.04
0.848
-1.424
-12.696
-3.76
-14.392
-4.36
-10
-15.36
-12.68
-1.888
-9.304
-5.136
6.936
8.36
-0.68
0.288
4.048
3.56
4.72
1.952
-1.216
-9.48
-6.216
-13.6
-14.248
-16.448
-3.312
6.024
-12.6
-9.656
-5.68
-15.168
3.272
6.04
-3.096
11
0.408
-1.872
5.48
-12.456
1.856
-1.936
-11.552
3.68
-11.504
-9.744
-7.864
-22.352
-1
-2.344
0.04
-10.912
3.104
-4.76
-7.44
4.056
-0.24
-0.496
-12.2
-2.288
4.168
-8.216
-5.496
-3.8
-2.68
-10.464
-19.376
-6.936
0.28
-13.08
-7.384
-7.008
-4
-10.6
-8.72
-9.216
-3.816
-6.208
6.36
-11.328
-7.384
-0.08
2.616
-6.76
-15.952
-2.648
-2.776
-12.736
-3.64
-14.728
-10.84
-0.464
-18.608
-5.48
2.96
-2.784
10.224
-2.992
7.6
-8.328
-12.792
-3.448
2.824
-1.84
-8.736
-20.28
-10.528
-12.176
-14.16
1.672
-4.632
-5.392
-12.28
4.72
1.704
-2.304
-1.328
3.152
-5.96
1.848
-8.56
8.984
-2.288
5
-8.712
-18.712
4.136
-6.192
-4.08
-10.12
-11.056
-5.464
-6.024
-3.2
1.696
0.512
2.496
-1.688
-9.08
-3.624
-10.288
6.456
-12.472
18.48
0.976
-8.832
-1.168
-7.216
-1.6
4.536
11.224
-2.344
-5.568
-1
4.88
6.96
-12.584
-9.896
-3.88
-7.176
-15.88
-7.472
-15.72
-5.16
0.84
-18.952
-14.128
-13.768
-8.88
-3.624
-5.024
-7.264
-9.168
7.2
4.344
4.448
4.28
4.264
-3.6
-16.88
3.928
-10.92
4.664
-10.92
-1.288
-4.12
-23.664
-8.784
-11.56
-10.016
-8.432
-10.36
-15.88
1.56
-5.736
2.792
2.568
2.448
0.4
-5.224
-12.344
0.024
-7.256
-9.16
-3.336
-1.064
-6.952
-4.064
-6.76
-1.256
1.36
-6
3.36
-3.52
-0.848
-1.92
-2.496
-9.704
10.2
-5.216
-9.992
-12.408
-2.752
3
-11.088
-14.96
-0.344
-2.024
-3.08
-17.824
-9.232
140.12
-54.072
-38.76
-20.048
-11.744
-6.304
4.672
-5.84
-4.704
3.76
-6.336
-8.168
0.2
7.656
-14.56
5.616
10.328
3
-6.144
-17.024
-10.84
-7.848
-19.24
-0.424
-5.968
-1.216
6.408
1.16
-7.28
2.208
-8.008
3.688
-15.32
-22.464
-2.656
-11.728
-14.472
1.36
-6.968
-11.944
-4.896
1.872
-8.2
-13.296
-1.48
2.216
-13.056
-4.2
-13.144
-3.432
-13.76
-23.736
-14.28
-7.456
-13.656
-7.712
-12.72
-8.64
-4.192
-13.064
-8.808
-19.104
-11.04
-13.464
-5.112
-7.392
-1
-1.8
-6.656
-7.536
-11.368
1.408
1.52
-2.992
-3.472
5.952
4.328
-0.76
-2.936
1.808
-1.736
-7.352
-2.56
-2.328
10.488
-2.792
4.624
4.92
-4.512
-4.928
-16.032
-10.448
-3.4
-8.648
-6.168
-17.696
-12
-2.44
-2.44
-4.448
-12.808
-2.936
-14.32
5.464
-0.816
-7.672
-4.632
-3.72
-4.048
-8.152
-9.536
-17.784
-1.6
-14.432
-11.28
-13.928
-16.52
-14.8
-14.304
-1.208
-4.232
3.896
1
7.384
-7.864
4.264
4.768
-1.56
-9.592
-17.504
6.216
-7.168
-4.92
-5.432
-9.224
-9.64
-12.272
-3.72
-6.152
-0.008
-8.712
-12.712
-10
-5.28
-0.712
-8.536
-9.536
-3.16
-16.544
-1.368
-10.768
-15.864
-1.52
3.528
-8.576
-9.512
-14.328
-10.68
-1.52
-2.104
2.592
-1.032
14.6
-9.912
-5.384
9.064
4.368
-11.4
-18.28
1.152
-11.408
-7.272
-8.44
-7.952
-16
-17
-3.472
-1.24
-3.176
2.104
-11.584
-5
0.8
-4.872
1.936
-2.104
-2.008
-4.32
-4.416
9.744
-3.048
1.24
-2.8
3.624
-10.512
-6.296
-11.04
-5.92
-7.432
-2.264
-10.408
-16.144
0.4
-8.776
-10.592
1.832
4.784
-8.12
-16.304
-3.432
1.68
-11.248
6.08
-1
-2.544
-8.008
-1.688
-12.4
-11.872
-8.656
-0.048
-12.712
-9.48
-6.232
4.976
4.936
4.808
-0.76
-10.512
-7.88
-12.208
-11.36
2.72
-0.264
-4.504
-6.072
-9.248
-4.92
1.864
-10.464
3.592
-8.76
-12.2
8.48
7.416
11.104
-10.992
-22.36
-0.44
-2.224
-7.584
-1.928
1.88
-4.312
6.12
-4.752
2.192
-5.12
0.384
0.992
3.368
-12.848
-2.44
-0.424
-3.136
-0.712
-5.76
-4
-14.184
-0.384
-4.024
-4.616
-11.6
-5.576
-7.352
-7.464
-2.728
-14
-11.832
-11.816
-2.864
-2.576
0.64
-6.624
-6.344
4.952
6.944
-3
-16.896
-3.168
3.232
-6.52
-3.4
-0.736
-19.152
-23.904
-14.176
-14.84
-12.656
-3.744
1.752
6.632
-7.68
-14.824
-0.792
-6.168
-17.128
-0.44
-4.32
-17.744
-24.68
-14.664
-10.92
-19.048
-8.584
-14.128
-21.368
-17
-11.76
-22.488
-15.912
-12.184
-12.04
-19
-3.944
-0.464
-0.848
0.32
11.992
7.976
-4.12
6.712
-8.68
-6.184
-7.704
-22.904
-2.816
-9.72
-12.672
-11.248
0.984
-4.104
2.8
-10.48
-3.912
4.792
4.584
4.84
7.552
5.616
-4.936
-10.968
-0.72
-11.72
2.24
-7.984
-7.72
-11.32
-13.848
-22.08
-11.928
-7.048
-1.68
-7.528
-1.688
-0.336
3.296
3.8
-4.632
-0.272
4.608
-17.952
-12.92
-18.472
-6.632
-9.472
-6.32
-15.72
-9.096
-5.136
1.608
-9.696
-13.88
-2.272
-1.312
-6.376
-8.288
-8.04
-2.536
-18.12
-10.576
-12.472
1
-19.952
-27.56
-17.296
-25.12
-10.28
-0.56
-10.656
0.696
0.728
-10.2
-3.024
5.064
-9.368
-5.296
4.8
1.464
5.528
-1
-2.704
-6.88
1.784
-20.496
-3.376
-10.936
-12.4
-15.264
-15.56
-16.656
-5.04
-5.44
-4.896
-5.896
9.504
3.416
2.36
3.352
-11.176
3.712
-9.824
-1.48
-5.872
-18
-11.04
-2.208
-17.76
-4.584
-0.768
3.304
-6.96
-4.4
1.416
3.992
9.736
-3.568
-6.04
-8.128
-12.056
4.408
1.992
-5.96
4.08
-6.952
-14.832
-4.368
4.72
-9
-0.648
-3.904
-4.12
-7.44
-8.736
-7.456
-11.52
-7.72
-9.6
-3.112
-9.568
-9.512
-5.08
-14.4
-3.008
-6.616
-10.16
-20.712
-6.28
-8.104
-15.12
-1.328
2.28
-9.28
-8.952
-4.752
-5.608
6.416
-3.88
-11.944
-21.68
-4.04
-1.488
-11
-7.848
-8.04
-9.664
1
-8.76
-18.472
-0.728
-17.368
-7.32
-3.56
-11.048
-2.472
10.576
-3
-5.08
-13.976
-6.608
-11.64
-14.528
-15.32
-1.728
-9.424
-14.48
-12.048
-7
-4.24
5.616
-3.296
0.424
-1
-5.696
-7.648
0.536
3.616
2.96
-5.584
-8.968
-18.992
6.064
-3.04
-15.448
-10.896
-7.36
-7.944
2.44
-11.888
-5
-4.168
-3.24
-4
2.992
3.776
4.376
2
7.16
-2.368
-6.784
3.672
-9.368
-13.76
-8.36
-9.672
-3.648
-0.36
-2.72
0.744
3.032
-0.872
-1.328
9.36
-0.168
6.536
2.048
3.224
7.8
-0.648
-3.52
-3.248
4.208
-0.68
-6.376
-9.208
-2.08
-4.168
-18.12
-18.144
1.784
-0.76
0.568
11.08
-0.496
-8.192
0.584
-9
-5.56
-3.368
-13.648
-6.984
-9.864
-8.2
-8.76
-8.4
-5.256
-14.208
-7.08
-6.568
-16.128
-20.584
-13.648
-4.6
6.36
9.056
-6.416
4.72
8.44
4.32
10.24
3.784
4.904
-9.04
-7.176
-1.28
-0.328
-0.48
-5
-16.936
-15.128
-11.384
8.92
-14.36
-3.824
-2.456
-9.528
-8.84
-11.76
-1.984
-7.264
-0.544
-1.944
-12.96
-4.976
-4.552
-14.304
-9.88
-12.04
4.232
-10
9.136
10.616
5
1
7.384
7.288
2.08
-7.72
-3.288
-14.64
-0.392
1
3.92
-11.168
-4.88
-7.888
-1.344
-10.04
-18.144
-10.392
-8.32
-2.824
-9.72
5.928
0.496
-14.792
-3.632
1
2.264
2.12
-4.936
-14.176
-11.48
-8.072
-17.392
-9.752
2.528
-5.24
-6.904
-13.344
-2.352
-7.952
-9
9.232
5.872
-14.656
2.328
-3.4
7.336
3.368
2.568
-7.888
5.8
1.76
-13.544
-19.912
-11.632
-4.04
-5.624
10.36
-9.704
-8.16
-2.88
-11.416
-3.64
7.928
0.008
7.88
6.168
5
-3.056
-13.88
-18
-5.776
0.632
7.52
-2.656
-5.2
3
-9.96
-15.928
-9.416
-12.48
2.656
-0.32
2.112
-5.744
7.64
8.824
2.416
-10.432
7.368
-4.64
-18.056
-6.752
-13.104
-6.44
-9.48
-3.312
-18.248
-15.44
-15.008
-1.8
-8
-1.832
0.888
-6.104
3.48
-10.44
-9.912
-1.344
-5.856
-11.76
-4.624
-11.736
-4.12
-11
-13.48
-5
-13.536
-11.032
-6.728
-12.04
-8.736
3.864
6.848
6.76
12
8.288
14.848
-10.856
2.192
-3.28
2.424
-10.336
-4.936
-14.024
-15.64
-8.248
-9.576
-24.376
-1.328
-6.44
1.984
8.424
4.048
2
3.96
-3.952
-6.664
-10.832
-10.872
6.6
-4.272
3.04
-1.72
-8.744
-7.4
-1.952
-3.672
-1.92
-12.112
-5.64
-18.472
-0.984
-7.944
-3.256
-6.12
-0.872
-4.952
2.704
5.432
4.2
2.248
-4.72
-9.264
-2.48
2.2
-12.104
-16
-12.296
-12.488
-9.88
-3.008
-2.904
-5.704
-12.488
-2.04
-3.856
-7.048
-14.24
-2.072
-1.32
1.168
-3.704
-11.624
-2.432
-10
-6.144
-3.176
-4.544
-4.072
2.2
-16.648
-7.264
-5.256
-16.048
-4
-0.104
-1.576
-11.888
-18.68
-3.88
0.488
-5.592
-10.136
-8.64
-0.04
1.584
-6.328
8.888
-16.24
-3.2
-5.688
-12.032
1.632
10.52
6.6
12.696
4
-9.664
-3.016
-3.24
-2.912
-8.728
-8.552
-5.536
-6.68
-10.312
-15.864
-7.424
-0.112
-2.36
-4.16
-0.536
-6.312
-3.592
-11.68
-4.616
1.152
3.56
-0.712
-4
-12.144
-4.672
-2.872
-10.272
-12.84
-2.864
-15.968
-2.696
-7.84
6.32
-2.28
2.608
-9.368
-4.312
-0.72
-0.232
-25.16
-10.048
2.296
-3.12
-8.936
-8.832
-7.584
-14.608
-8.6
-9.528
-7.92
-0.872
-6.744
-2.6
-11.464
-4.248
-1.504
0.104
9.4
-3.192
1.016
-7.592
-13.464
0
-4.16
-10.84
-9.296
-5.224
-14.56
1.832
-1
1.352
0.76
-4.2
-7.688
-10.992
-0.28
-3.288
-6.16
3.632
6.512
-9.16
-8.824
-14.12
-6.144
1.928
-7.808
-13.216
-3.08
-11.16
-5.704
-6.472
1.88
-6
3.696
-3.28
4.064
0.24
3.8
2.184
-0.608
-1.256
-2.04
-2.52
2.88
-9.616
-8.856
-4.032
-1
-2.744
-4.88
-4.776
-13.568
-3.04
-7.688
1.92
2.536
2.512
1.68
6.12
-5.624
-6.072
1.28
-11.8
-23.264
-16.104
4.6
2.928
-5.12
-15.296
-15.232
-20.896
64.232
-59.32
-47.72
-19.632
-9.152
-6.112
1.08
-2.136
5.92
-1.992
-15.288
-5.52
-7.344
-7.56
11.272
-3.664
-11
-10.944
-19.08
3.16
-4.536
6.52
14.224
10.688
-1.616
18.768
2.96
8.112
6.696
-10.376
-7
4.44
-1.608
-6.712
0.728
-6.472
-8
-9.96
-11.672
9.92
-1.304
-2.8
-4.48
3.48
0.032
9.552
-4.8
5.56
5.896
-9.76
-9.888
-11.44
-8.256
-9.656
-8.944
-13.512
-17.56
-8.744
-10.888
-7.448
-5.456
-8.6
-0.08
-11.44
-2.736
0.944
-5
-5.648
-4.52
-6.72
-4.896
-1.88
2.624
-3.512
-10.864
-13.336
-15.08
-14.64
-9.144
-2.928
-0.712
-13.8
-0.512
-3.488
2
2.616
-4.76
-0.736
-1.472
-4.024
-18.584
-11.6
-13.224
-16.912
-12.816
-3.376
-13.16
-28.312
4
-6.792
1.808
-3.56
1.104
-10.416
-3.896
7.92
0.8
7.848
-1.504
2.816
0.88
-5.36
-8.176
-1.248
-6.328
-4
-10.2
-6.672
-15.544
1.552
-13.984
-5.56
-14.064
10.96
-4.24
-0.712
3.4
3.264
-4.248
0
-5
-5.64
-12.928
-5.624
-0.024
1.256
-18.84
-3.112
5.704
-0.904
-1.288
4
-6
5.328
-1.848
9.232
3.88
0.592
-5.688
-13.784
-1.544
1.36
0.608
-5.544
-0.016
-14.016
-10.6
4.36
-16.816
-1
-1.088
-5.44
5
-13.552
-14.44
-3.608
-14.4
-2.016
-6.888
-18.968
-2.432
-18
-15.12
-4.248
-6.248
-13.584
-5.04
-9.544
-0.12
-14.592
-9.512
-13.2
0.872
8.856
2.232
-17.656
-5.12
-9.504
8.136
-5.216
-1.296
-12.2
-13.656
-21.496
-8.472
-9.144
-3.72
-7.376
-5.168
0.84
9.664
-8.84
-3.432
-6.096
-13.144
0.28
-3.76
10.824
1.024
6.36
0.888
7.24
-1.512
-5.352
-2.488
-5.968
1.4
-15.592
-10.56
3.792
-2.168
10.68
12.104
21.296
12.76
-1.544
2.04
15.44
7.176
-14.344
-8.64
-7.88
-3.048
-8.008
-5.04
-11.952
-6.2
-9.352
-18.528
-5.368
-5.272
1.2
-1.48
3.584
-1.112
14.888
3.24
-1.736
1.864
2.816
12.896
-2.12
5.048
-5
1.608
-4.72
-2.44
3.84
13.16
11.688
-4.56
-2.64
-1.768
-8.864
-2.576
-1.192
-1
0.76
8.424
-7.272
-11.736
-4.12
-1.12
-7.68
-9.76
-16.592
-10.24
-13.416
-5.36
-14
-1.28
-3.28
-11.768
-11.16
-0.408
-1.792
-9.44
-5.08
-3.448
-4.936
-9.368
-11.4
-17.752
2.48
-10.872
-10.96
-17.32
-6.12
-16
-8.824
-7.424
-6.52
-5.352
-9.776
-5.232
-2.952
-0.52
-1.032
6.76
-10.36
2.44
-5.88
-7.208
-6.208
-5.912
-13.128
-14
-13.344
-12.584
-7.736
-17.144
-20.48
-13.688
-15.416
-7
2.16
0.12
4.432
-10.024
-2.12
-6.64
-1.68
-15.64
-1.976
-13.944
-11.448
-8.16
-12.632
-17.632
-13.544
-10.104
-1
-10.352
-5
0.88
2.416
-1.44
-8.56
-3.64
-2.6
-16.68
-26.24
-2.408
-6.768
-11.656
-9.28
-9.36
-6.632
-9.656
-1.64
5.216
-2.12
-2.096
-2.752
-2
-5.768
-9.2
-1.848
0.208
-14.664
-1.864
-2.92
-1.912
-1.68
-6.736
0.376
-10.92
-17.704
-8.128
-4.816
4
-3.08
-0.024
-2.928
1.968
0.456
6.12
9
7.56
8.52
-3.712
-11
-14.184
-3.712
-5.312
-16.816
-16.12
-18.984
-18.952
-2.376
-5.32
-8.48
1.664
4.456
-9.872
4.656
13.8
-6.696
5.792
-6.864
-5.768
1.8
-11.864
-4.336
-6.48
-19.632
-1.2
-7
-10.704
-4.312
-4.824
-4.24
-0.512
1.68
6.08
-2.464
-1.2
9.104
3.208
-1.712
-2.152
-7.64
-8.584
1.128
-16.064
-8.672
-15.28
-8.456
-21.624
-21.256
-5.944
-11.2
-2.832
6.44
2.208
-4.592
1.44
4.928
4.488
-4.92
-16.32
-11.24
-2.928
6.688
-7.096
-13
-3.76
-19.984
-12.92
-6.944
-15.064
2.36
1.408
-1.912
-5.048
4.728
-12.4
-1.648
-2.088
4.208
-7.248
1.56
-7.216
-10.128
-10.064
-2.68
-7.2
7.824
-7.296
6.76
4.648
-3.36
-12.16
-0.336
-2.36
-8.704
-2.12
1.336
-4.752
-5.552
-5.496
2
-8.152
-9.48
3
-6.072
-3.36
-12.504
-13.28
-3.264
-7.072
-8.48
-4.328
-5.128
9.216
11.448
-1.24
-7.024
-6
-10.64
-13.592
-7.8
-6.736
-8.704
-19.464
-15.432
-9
-15.28
-3.192
4.408
-4.656
6.68
-7.712
1.28
3.848
-0.704
-8.12
-4.112
-2.968
-4.488
-2
-7.48
-12.088
-8.08
-0.816
-17.032
-6.92
5.872
-21
-3.352
-7.088
-5.4
-5.72
-11.448
3.936
6.688
-7.4
6.88
4.36
-3.496
5.888
-7.04
12.096
12.64
1.056
-3.848
-10.32
9.064
-7.856
-8.296
0.768
-8.08
-0.376
1.416
1.736
13.016
9.4
8.448
10.504
4.44
-3.896
-7.36
-16.008
-4.056
-13.216
-21.656
-6.48
-11.928
7.424
-19.472
-10
-12.44
4.816
-2.568
-10.096
-1.624
-6.72
-4.04
1.456
8.504
-1.416
-12.4
-4.76
-0.568
-5.768
-6.632
-15.08
-20.216
-2.216
-15.712
-8.032
0.04
-11.464
6.768
-14
1.92
4.68
-2.744
1.752
4.072
-2.024
-3.72
1
-2.12
0.112
-17.016
-3.8
0.936
-2.728
-7.944
6.032
-5.64
-8.296
5.408
-16.792
-3.304
4.76
0.784
3.624
-15.24
-9.192
-10.24
1.408
-10.848
-5.328
-7.696
-6.68
-5.112
2.72
-1.096
-3.24
-1
-10.616
-14.904
-0.008
1.384
8.32
11.56
4.992
8.552
1.544
-5.52
3.64
-1.608
-10.76
-7.656
-13.24
-25.376
-11.16
-1.272
-7.912
-1.4
-3.992
-3.608
-11.144
3.392
4.6
-4.536
5.296
0.376
1.216
-6.28
-7.536
-7.104
0.336
-8.584
0.88
-5.648
1.864
-5.704
-1.896
-5.48
-1.064
-3.888
0.976
3.096
-2.16
4.168
-0.256
-3.736
-16.24
-8.8
-3.928
0.44
-1.704
1.264
-5.68
-19.44
-9
-17.648
-15.992
-5.16
3.352
0.808
1.784
2.856
-6.8
-6.488
11.272
1.208
-7.88
1.2
4
-1.912
-4.512
-20.304
-5.6
-7.928
-12.832
-8.56
-3.248
0.44
2.552
-8.36
-10.064
-5.648
1.8
-6.152
-5.472
-4.24
-5.544
-10.56
-4.368
-12.344
4.824
-5.416
-2.68
-2.688
-9
-7.816
-8.504
-4.4
-5.808
11.416
-6.664
-9.904
-0.76
-13.856
0.088
8.184
-2.464
1.52
-3.248
-2.872
10.76
-11.496
-3
-15.592
-16.848
-9.352
-8.304
-3.2
4.04
-0.712
-0.88
-13.136
11
-10.096
-8.464
2.712
1.192
-1.72
-1.848
-1.672
-7.928
-8.728
-11.24
3.392
-16.088
-9.368
-8.344
-5.48
-8.552
-1.344
-4.728
7.208
2.84
-8.928
-8.832
-7.584
-16.696
3.4
-11.256
-11.52
-12.472
-19.784
-19.12
-19.072
-6.36
-10.416
-11.112
-5.16
12.192
-1.88
13.24
-1.128
17.64
-4.392
8.84
-1.512
-14.312
-3.6
-13.376
-14.488
-8.952
-7.76
-10.8
-11.832
-7.032
-4.192
-0.448
-17.92
-8.192
1.456
-8.488
6.504
-2.24
-13.28
7.928
8.592
-19.064
-3.28
-5.984
12.192
-8.736
2.12
-2.2
-9.432
-5.896
-2.432
-9.064
-9.2
-7.184
0.264
-5.744
10.544
-7.88
-1
-12.232
-9.856
-14.808
-15.44
-10.744
-12.76
-1.328
-9.184
-7.56
-13.896
-13.08
-13.928
-5
2.16
-8.392
-12.344
-7.48
8.032
-8.6
1.432
0.856
8.104
-10.056
-13.36
-6.616
-9.272
-7.712
-4.232
-4.8
-3.968
-7.368
-2.12
-10.776
-3.08
-11.16
-6.536
-0.08
-0.152
-3.36
-3.08
8.416
0.824
8.712
3
-6.512
0.424
-11.712
-8.92
-7.36
-15
-9.312
-14.696
-18.544
-8.36
-10.64
-4.064
-10.376
5.72
-6.44
5.84
-4.08
-15.048
-4.408
-14.72
-17.88
-3.392
-10.688
-4.064
-6.55E-11
-10.504
-9.296
-4.312
-7.312
0.32
-5.512
-14.424
-7.672
-8.632
-0.4
-7.44
-12.552
-14.536
-8.232
-10.64
-16.584
-17.872
-8.976
-11.888
-4.48
-1.376
-2.488
0.784
-6.928
-8.8
-2.72
-2.464
6.736
0.264
2.32
8.872
-2.416
-10.568
-14.648
-13
3.416
0.312
10.424
4.064
-5.64
-7.512
-18.328
2.32
0.376
4.76
-0.224
-2.808
-10.992
5.136
0.2
-7.184
-1.736
-1.256
-4.208
-9.08
-2.328
-5.32
-13.824
-0.224
-9.32
-17.336
-9.88
-16.624
5.272
-10.52
-6.792
-3.16
-5.432
-2.12
-2.96
2.92
3.344
-0.144
-3.736
-3.8
-20
-14.688
-5.336
-15.888
-10.04
-3.88
-7.952
-4.368
-4.768
25.6
47.752
-51.224
-28.904
-9.248
-20.56
-13.408
1.544
-2.016
-2.184
-5.64
-13.696
-7.424
1.232
6.424
-4
-11.096
-9.768
-25.984
4.696
0.44
-6.288
-2.656
-12.312
-2.728
-11.88
2.832
-3.728
-0.264
1.688
-6.52
6.304
-2.608
-4.456
-8.296
-3.4
-5.912
-5.944
-11.208
-3.544
-4.8
-3.504
3.96
-8.408
-4.448
0.76
-2.88
-6.464
3.168
5.472
-0.56
-9.088
-5.568
-11.352
-2.512
-9.64
-27.712
2.856
-17.72
-4.776
-2
1.832
-2.096
-0.256
1.632
6.2
11.136
-6.952
-1.456
-15.696
-0.36
-6.872
-9.056
4.76
-10.832
4.88
1.776
-13.76
-15.856
4.28
-7.68
9.808
-2.944
-12.416
-6.376
-2
-4
6.368
-0.472
-10.656
2.4
-3.776
-8.392
-8.28
-15.672
-11.32
-13.44
-1.384
-5.16
-17.456
-6.64
-11.872
-7
-3.656
4.64
-4.04
-21.056
-8.336
-12.928
-16.68
-16.16
-9.96
-10.688
-4.512
-14.76
-9.8
-3.912
-19.232
-6.616
9.824
-11.56
-24.736
-6.408
-4.232
-5.696
1
-1.624
-2.88
2.184
5.808
-4.12
-1.616
-13
-0.68
2.136
-9.8
-4.264
-11.568
-2.752
-13.568
5
-10.28
-21.368
-4.448
-13.576
-9.32
-3.544
-8.976
-13.304
6.136
-0.64
-8.92
-13.904
-14.136
-12.936
-5.08
-5.392
-16
-5.912
0.792
3.12
1.016
-12.832
-7.376
-0.912
0.6
-0.52
-10.04
-4.096
1.704
-5.24
-4.248
-8
-2.344
-4.848
-5.76
-18.104
-25.656
-8.768
-20.872
-3.32
-12.032
-12.856
6.616
1.104
6.36
-2.544
6.184
3.392
-1.464
-13.8
-4.072
-11.048
-4.016
-0.856
-6.44
3.992
-5.36
-6.08
-14.664
0.76
-1.432
-3.072
-4.76
-1.648
10.4
-1.176
4.136
2.792
3.376
-14.6
-7.616
-12.824
-5.488
0.312
-8.2
-6.184
-14.128
2.488
-15.128
3.88
-3.456
-13.808
-7.968
7.968
2.6
-0.384
-5.472
3.312
-7
9
-3.424
-4.256
0.288
-3.464
-2.6
-11.648
-6.752
-14.304
-3.496
-5.4
-12
-3.416
-7.056
-15.944
-8.04
-8.176
-0.952
5.184
-0.696
5.16
4.248
2.512
5.968
-10.664
0.56
-0.112
0.08
-3.688
-11.288
-1.8
2.04
-3.984
-4.808
-3.096
-14
2.336
-0.424
3.992
-7.304
-3.76
-2.424
12.28
-11.008
1.32
-6.64
-4.056
-14.152
-15.016
-4.736
-6.4
-3.16
-0.056
-2.632
-11.296
10.52
-10.816
-0.496
15.856
-1.064
-3
-5.264
-5.552
-8.528
-7.688
-0.28
1.608
-14
-8.92
1.528
-9.92
-7.552
-1.104
-15.88
-7.024
3.64
-3.192
-1.92
-5.68
-10.208
-2.68
-14.416
-9.672
-14.568
-19.552
-11.8
1.448
-20.096
-27.16
-14.936
-11.16
-9.184
-13.416
-6.16
-10.664
-8.68
-9.776
-7.88
0.904
18.704
-1.88
-13.144
-8.296
-7.512
3.128
-12.16
-2.184
-14.032
-12.56
-4.552
-6.4
-10.832
-8.128
-5.048
4.424
0.04
6.224
5.872
1.16
-6.776
-2.04
-3.92
-9.824
-12.88
5.552
3.76
-0.368
-0.504
-2.496
-2.976
-1.16
-0.784
-7.28
3.664
2.248
6.2
-2.52
0.48
11.888
-7.848
19.32
17.12
-10.056
6.4
-3.088
-11.56
-5.688
-10.872
-5.728
-9.312
-7.84
-4.384
-3.376
-2.648
-13.544
-11.04
-16.888
-7.584
-2.136
-3.48
12
-8.192
-11.056
-15.84
-22.12
-27.12
-4
-20.664
-31.312
-17.68
-10.12
-6.64
-4.848
3.992
0.312
3.16
5.144
2.472
6.184
5.24
7.76
-2.944
-5.944
-11.648
-1
-2.2
-8.496
-2.184
-11.128
8.296
-13.28
-0.608
-8.144
14.352
-15.472
4.04
-1.192
6.328
10.648
0.64
5.08
13.128
16.936
7.128
8.416
3.4
-8.872
-13.72
-7.952
-1.872
-15.8
-6.344
-19.992
-8.296
-7.064
-4.52
0.944
-7.584
3.544
-1
4.8
-3.36
-3.168
5.616
5.144
-9.88
-6.848
-4.888
-7.792
2.12
-7.36
-9.328
6.824
-2.032
-15.624
-11
-4.888
-5
-6.256
-5.752
-0.48
-0.44
-8.616
-11.856
-17.16
-13.28
-5.488
-14.352
-8.76
-12.816
-3.88
-6
-4.744
-9.992
-5.632
-12.44
-4.744
12.216
5.04
-5.72
4.6
-2.696
9.92
16.44
6.888
-1
5.856
-10.728
-12.816
-14.968
3.32
9.8
1.232
-11.12
0.832
4.92
0.752
4.224
-2.328
1.952
-5.16
-12.12
-6.144
-15.96
-11.568
-16
-7.952
-10.48
-13.272
0.544
3.16
-0.424
-5.312
-0.536
-13
0.6
-1
-0.064
1.016
-13.032
-7.88
1.928
10.08
2.088
7.152
-2
-1.064
-15.88
-5.272
-8.52
-8.4
-16.52
5.592
0.968
-5.216
-7.32
-5.392
-1
-6.256
-2.056
11.64
9.096
-2.656
-10.944
1.824
-17.08
-9.776
-10.952
8.232
-5.88
-0.68
0.792
-2.232
-1.176
6.72
5.8
0.968
14.544
7.824
4.712
4.72
6.008
-3.36
-6.784
-6.336
-5.96
-13.776
1.52
-9.856
-1.576
-4.08
-4.152
-0.512
-6.376
-7.816
4.72
9.392
-1.912
5.544
-6.344
-12.6
-7.464
-5.44
-17.952
-14.544
-6.88
1.656
-10.808
-10.096
1.256
-3.96
-7.568
7.528
4.36
-5.184
-5.24
1.632
-5.752
4.256
4.512
2.04
1.584
-4.84
0.632
3.512
-2.6
-2.672
-12.48
-16.28
-14.968
-6.92
-17.176
-12.368
-7.528
-5
-7.52
2.064
2.12
1.304
5.112
3.56
-3.136
1.616
-2.68
-9.408
-10.36
-7.96
1.416
-1.888
15.712
3
-0.192
-16.752
1.72
-2.616
-11.64
-3.424
0.36
2.08
8.248
11.44
-4.304
15.816
-5.864
12.048
-2.36
-11.592
-18.24
-14.952
-5.12
-0.24
-2.08
-16.496
-5.584
2.152
-0.6
-3.768
2.704
6.096
7.92
4.84
0.88
6.32
-5.912
-5.736
2.2
11.648
-13.152
0.944
4.744
-14.28
1.136
-1.952
-0.128
0.664
3.44
-14
7.256
-2
-8.184
-7.2
-3.96
-6.904
-26.544
-11
-11.96
-19.504
-9.072
-12.728
-17.808
-11.6
-11.368
-9.64
-4.784
-5.36
-1.4
6.984
7.432
3.984
-2.576
-2.92
7.896
8.664
8.984
-6.488
6
-1.24
-6.216
-6
-14
-3.96
-0.984
-16.04
-18.84
-1.576
12.8
-4.744
-2
-2
-1.808
-12.08
-5.528
4.336
-4.072
-9.488
-1.44
-5.744
6.376
3.448
-2.008
-11
-14.72
-7.208
-4.496
10.752
-2.36
9.032
-13.96
-1.472
0.536
-3
-2.392
-4.12
0.76
-8.944
-8.44
0.248
-8.16
3.352
-5.032
-12.4
-5.84
1.992
-3.384
-4
-4
-1
-2.288
-11.272
3.776
8.56
-11.832
-3.336
-15.928
-5.912
4.24
-5.416
-7.304
-8.392
-4.328
-4.16
-0.752
1.896
-8.64
-8.384
-13.56
4.056
-0.552
1.272
10.896
-9.2
-4.744
-6.928
-1.752
-1.784
-2.12
-4.56
-8.608
-1.08
0.104
-2.08
-1.824
6.792
-5.352
-4.744
7.32
-1.096
-7.048
9.448
6.544
-0.2
-3
-14.72
-3.912
-10.112
-4.2
-2.384
-6.984
-11.384
-5.752
-7.36
-7.816
-18.248
-6.784
-4.008
0.2
9.496
-3.64
-0.168
-3.208
-0.28
1.16
1.888
-0.264
2
2.48
-0.224
-0.456
-3.976
-7.04
-14.8
-7.072
-8.912
-0.816
13.208
-7.08
-4.56
1.232
4.776
-3.288
3.84
-13.128
-0.416
-0.656
1.272
-4.8
-8.784
-20.424
0.936
-9.512
-8.6
-4.04
-3.688
-9.456
-1
-1.8
-0.24
-2.144
-7.384
-3.976
-4.52
-3.736
-3.504
-10.976
-2.696
-11.72
-18.92
-11.632
-16.064
1.056
-5.4
-3.432
-9.304
6.328
1.12
-12.12
3.04
-2.408
5.888
4.864
3
7.28
-6.768
-12.976
-19.544
-1.12
-13.832
-1.672
-8.072
-11.136
-6.64
3.224
-5.152
-5.992
-10.312
7.84
8.232
15.896
-7.096
5.384
-4.92
8.8
4.328
-9.376
-3.216
2
-5.736
-4.888
-8.624
-12.312
1.16
-4.416
1.568
8.832
6.528
0.8
5.192
8.792
1.056
-2
-11.88
6.424
-7.096
2.488
4.888
-18.2
-8.752
-12.024
-9
-13.944
-14.2
-9.376
-8.96
-12.808
-5
-6.32
-11.816
3.224
-1.784
2.008
-14.2
8
-18.688
3.928
9.848
3.88
-9.48
-12.488
-12.152
-8.128
-14.92
-11.96
4.456
1.512
-7.24
5
10.056
-1.656
12.512
3.872
-12.44
-2.44
-1.192
4.048
1.744
9.16
-3.92
-7.824
-2.104
-11.192
-12.08
-5.792
2.008
5.04
-8.488
0.36
-7.672
5.904
17.664
4.736
-8.6
-12.416
-9.376
3.44
2.992
2.56
0.56
-7.768
-22.08
-10.216
-16.16
-17.16
117.74
-44.304
-35.616
-29.4
-3.024
-1.16
-6.984
-12.544
-16.68
-2.504
-8.288
-1.616
5.568
4
2.096
-5.576
-9.008
-11.96
-3.76
4.288
3.312
5.536
1.136
4.44
9.56
7.696
9.504
-1.296
13.12
-4.68
-5.184
-8.232
1.944
-11.2
-11.048
-15.88
-9.376
-8.064
-2.2
-3.736
-4.52
-4.16
-8.904
3.48
3.072
4.464
0.504
10.472
0.68
0.36
-3.224
2.056
-3.536
-2.52
6.032
1.68
-15.68
-14.992
-3.44
-12.96
-7.048
-12.472
-2.072
5.8
-3.688
-5.536
11.384
0.552
11.68
1.88
0.64
-1.512
-4.008
-2.56
-10.424
-19.352
2.424
-1
-5.92
-10.328
10
4.68
-6.376
-8.48
-1.696
13.648
4.984
2.304
3.4
-2.76
0.96
-4.184
6.376
-6.96
-0.008
-7.808
-7.16
-3.712
-5.2
1.232
-7.648
6.072
-9.552
-7.04
3.48
3.336
-5.464
0.536
-9
6.296
1.096
5.304
3.792
-7.6
-1.976
-1.832
-2.776
-8.04
-4.96
-4.528
-6.544
-11
-11.608
-11.52
3.984
5.984
-4.696
-8.056
-10.24
-14.52
-9.464
-4.048
-0.712
-5
-10.768
-12.712
-16.712
-8.576
-7
-11.184
-17.424
6.712
-2.848
5.2
-7.728
-10.36
-2.464
-4.48
-3.2
-11.696
-1.424
-0.504
-1.656
-2.28
0.536
-3.08
-4.552
-9.912
-3.84
-10.992
-13.224
-6.96
-6.608
1.2
-0.264
7.48
13.096
-5.664
-1
-2.32
-7.72
-15.176
0.952
-14.8
2.912
-17.208
-8.648
-15.384
-5.16
-2.032
-7.16
3.616
1.336
0.68
2.792
4.56
-3
3.688
-4.6
10.28
2.568
-8.72
-5.592
-1.76
-15.504
-6.376
-4.536
-8.16
-3.4
-9.072
-8.832
4.048
-8.856
-7.16
-5.16
-3.296
1.736
-9.312
-0.96
-3.752
-8.28
-4.984
-7.032
4
-13.128
-11.784
-3.28
-13.88
2.84
-4.68
-4.744
-3.904
-12.36
3.16
8.488
-1
-10.4
-0.904
8.04
-14.256
-22.504
-3.392
-4.12
-3.24
-6.744
-10.248
-8.304
0.008
-8
-9.088
3.48
4.664
-0.136
-4.56
-10.296
5.728
10.84
9.016
8.48
3.704
-3.528
-2.184
-1.224
-12.2
6.136
-5.072
-10.296
-14.152
-6.32
-8.576
9.832
1.712
-7.088
-7
-5.24
2.192
1.416
5.92
2.48
0.136
-1
-6.688
-0.16
1.44
0.056
-16.456
-12.888
-12.968
-7.96
-11.696
3.504
-6.096
-16.328
6.68
6.928
-23.656
-1.768
7.152
-0.6
-10.248
-4.856
-11.344
-17.528
-8.56
-0.416
0.32
-16.84
-15
-23.12
-5.536
-12.312
-26.072
0.592
-14.28
-10.936
-8.616
-4.616
-2.448
4.92
-4.584
-8.096
-2.92
-17.832
-7.2
0.896
-11.984
-14.632
-15.264
0.28
-13.688
-18.64
-7.568
-12.32
-8.88
7.064
-14.52
-3.336
-0.632
-0.36
-2.032
-27.384
-6.792
-2.248
-1.08
-9.776
-9.616
-10.504
-9.344
-19.2
-9.352
-1.912
3.12
3.752
7.96
-2.896
9.552
-6.856
0.776
2.32
-4.592
2.592
-3.104
-8.824
-12.04
0.32
1.176
-5.464
-10.44
2.96
-9.744
-0.536
-5.632
-16.24
7
-5.152
-1.168
6.384
-12.944
0.64
-9.856
4.32
6.344
-13.912
-2.28
-3.608
-7.624
3.064
-6.056
-1.4
-8.248
-11.984
-8.992
-4.88
-7.32
-2.728
-12.712
2.328
-4.136
9
-18.424
-11.576
-10.136
-5.112
0.08
-0.424
-10.344
-7.76
-15.864
-6.24
-8.28
-14.12
-8.624
-18.512
-17.04
-11.536
-5.184
4.048
5.56
-1
-15.008
5.552
3.144
-1.784
0.2
-9.736
-3.112
-15
-1
-5.12
-6.048
-4.104
-7.424
-3.224
-0.8
0.192
-0.344
4.648
-2.72
-3.64
1
2.728
-11.424
1.56
1.36
8.792
-5
-7.44
5.48
-3.8
1.76
-6.512
-7.72
2.592
11.4
-1
11.584
-5.896
1.36
-6.04
-2.864
6.928
1.808
-12.352
-16.96
-6.816
-4.376
-6.376
-14.312
-2.76
-22.224
0.648
3.992
-1.584
1.8
9.664
-5.432
7.928
7.208
-0.2
-2.216
-4.36
-7.84
3.84
-3.96
-1.64
-7.704
-11.36
-10.008
-0.36
-2.632
-3.568
-2.712
-6.632
-11.12
-8.824
5.496
-0.704
0.456
-6
-2.304
-11.52
-6.44
-17.92
-5.72
-14.44
-10.544
-1.416
-9.464
-7.56
-12.248
-1.648
-4.248
-19.472
-15.72
-7.64
-2.384
5.68
-14.848
1.88
-7.656
-8.136
-1.808
-7.952
-2
-3.904
9.056
-4.728
-19.384
-10.76
-15.288
-0.68
-4.696
-2.728
-7.08
-2
0.456
3.896
7.376
-7.36
-13.2
2.344
-8.184
10.032
1.24
-10.992
0.776
-6.208
-11.152
-2
-13.008
-13.52
-6
-2.808
4.72
-10.512
4.072
-1.912
8.472
2
-2.992
-1.912
-7.704
-7.488
-2.72
-0.48
-14.016
-25.976
-8.552
-14.44
-17
-14.232
-10.912
-7.76
-6.8
-3.208
-6.544
-13.456
5.368
7
2.432
-5.544
-9.056
-1.168
-14.52
-1.72
-5.048
-1.312
-13.28
-4.6
-6.168
-9.136
1.152
-3.064
-2.2
1.04
3.736
7.016
3.656
3.8
4.904
-5.048
-3.208
4.792
-6.56
10.096
-12.36
-0.128
0.288
-5.36
1.616
-4.824
1.76
3.28
-3.36
-14.896
-0.664
-0.64
-5
-7.4
0.96
-11.84
-2.184
-15.792
4.6
-4.824
4.856
-2.496
-4.024
-1.84
-12.736
-14.096
4
-12.752
-1.88
-6.656
-3.248
6.576
2.776
-4.84
-3.408
-14.776
-14.296
-5
0.44
8.192
-10.848
7.232
-12.232
-14
-4.856
-9.52
-3.576
9.616
-10
-12.56
6.32
7.08
-2.112
-3.08
-2.056
0.392
-3.992
1.408
5.48
-9.16
5.816
5.592
-8.032
-5.92
-4.968
-15.048
6.688
0.544
-17.2
-6.256
-6.448
1.56
2.312
-6.44
-2.32
-7.712
-17.336
-8.688
-12.36
-18.648
-4.224
-13.536
-0.792
-1.76
-9
-7.032
-5.488
1.112
-6
-16.376
-5.464
12
-4.76
4.2
6.376
8.576
6.28
-11.064
-6.16
-8.504
-14.72
-13
-2.84
-17.72
-3.008
-0.88
-9.024
3.64
1.28
-2.992
-13.32
-3.584
-7.568
-11.24
-15.816
-13.352
-11.552
-4.312
-11.8
-7.296
-13.784
-12.84
-20.504
-10.72
-11.328
-15.976
-3.08
5.584
-0.28
-8.592
-11.648
-3.64
-0.448
11.2
-4.216
-5.264
3.464
-0.464
-4.52
-3.176
-5.152
-9.96
-4.488
-5
-6.824
-1.624
-0.672
-1.16
-14.44
4.176
1.816
-7.976
-7.552
4.16
7.392
-11.384
-10.456
-2.944
-8.92
-1.368
-0.376
-11.632
-7.56
-8.64
-14.152
-4.568
-21.944
8.232
5
-1.424
6.04
-2.288
-3.424
10
1.016
-1.336
-12
-11.976
3.16
3.112
-13.424
-8.488
-12.032
-4.72
-7.216
0.712
-9.32
-8.704
3
0.952
-5.776
-2.96
-1.544
7
1.512
7.928
-7.184
-2.688
-6.96
-4
-10.432
-9.336
-13.056
-13.4
-5.272
0.344
3.064
-1.616
-8.76
-1.032
-11.664
2.936
-4.232
-13.08
3.376
5.904
-4.608
1.352
-1
1.24
-15.008
-5.704
-17.816
-14.92
-12.872
-1.792
-8.76
-1.016
-11.6
3.28
-4.928
8.856
1.928
1.4
-21.64
-2.08
-14.528
-8.696
-6.48
-2.328
-1.736
-6.48
-12.792
-14.6
-15.464
-5.6
-11.696
-1.208
-14.92
-0.664
-16.912
-8.712
-2.712
-4.84
-3.872
10.712
-3.192
3.624
-6.6
4.528
7
-1.144
-8.856
-7.16
-2.784
-0.44
-9.776
-8.544
4.37E-11
1.912
7.168
-0.272
7.872
5.88
-12.648
5.64
-6.896
-1.304
-4.28
-13.672
0.12
-3.512
-7.696
-4.8
-7.816
-6.152
-2.648
-10.544
-3.2
0.352
-3.16
-2.176
10.8
2
5.568
-1.616
-2.44
-5.04
0.4
-9.896
1
3.392
-6.088
-3.6
-14.944
0.032
1.616
-9
2.72
-13.768
-3.816
7.232
-2
17.44
7.848
10.432
2.584
-5.696
-5.8
-19.296
-16.776
5.088
-20.16
-9.96
-6.024
0.176
18.344
-6.896
-14.24
-3.912
1.224
8.176
-6.568
-11.68
-10.064
7.744
3.552
-3.216
-1
9.8
-10.976
-17.568
-12.888
7.2
-4.864
-6.528
-4.752
-14.104
-13.64
-10.688
3.224
-16.544
-4
5.32
1.072
0.88
11.808
-4.36
-3.84
-11.656
2.352
-11.944
-5.32
-4.68
-7.488
-3.192
-8.56
-9.76
3.8
2.24
-3.048
7.744
5.336
2.04
6.992
-8.424
-5.08
4.456
-22.2
-13
-16.592
-4.432
-6.992
-16.24
-10.104
-9.408
-13.216
-12.512
-0.84
-4.392
2.184
1.368
8.024
-6.4
0.632
3.936
7.608
3.936
8.32
-0.648
4.232
1.056
-22.968
-7.88
-13.328
-7.368
84.32
-38.048
-32.8
-11.984
-13.16
-5.032
-2.016
8.6
-3.192
-7.272
-16.136
6.376
-11
-6.288
-3.44
-22.552
-13.08
-6.4
-9.288
-6.688
-2.232
-16.704
-10.2
-14.416
-14.096
-7.008
-6.688
-4.92
-4.464
-5.632
-2.32
-15.856
5.72
-15.936
-13.832
-4.688
-2.672
-5.6
-9.224
-0.032
4.184
-3.432
0.92
-13.296
-12.608
-9.008
4.48
-10.88
-2.632
-11
-11.528
-3.36
7.96
-11.488
-9.936
-1.704
-4.568
-5.6
-7.544
1.392
-0.648
-8.128
0.6
-10.48
-7.488
-2.384
-3.104
0.16
-3
-4.376
-8.568
-7.656
-3.64
-2.64
-4.096
-10.024
-9.856
-7.16
-4.656
-2.864
-3.736
-3.064
-3.8
-5.104
6.928
0.96
17.104
14.6
4.24
-8.48
-13.136
0.584
-8.72
2.112
-1.768
-17.664
1.488
-9.96
-1.872
-1.88
-13.176
-3
-18.72
1.528
5.424
-7.144
-14
-0.76
16.216
-7.624
-6.376
-10.776
-6.4
1.432
-1.52
1.552
-1.008
-5.12
-4.912
-16.592
0.816
0.392
-8.96
-9.624
-1.112
-10.088
-5.112
-2.88
3.16
-1.064
-2.664
-6.696
2.64
-8.192
1.568
2.328
1.472
-10
-2.048
-2.752
6.128
-5.616
-6.32
-0.864
-12.328
1.24
-2.248
-0.88
0.528
-9.64
-9.88
-11.592
-23.84
-13.464
10.136
-4.456
-3.56
-9.68
-16.896
-0.728
-12.48
8.024
4.6
6.504
-4.08
1.968
11.512
-1.56
-1.144
15.28
-5.992
-2.32
-0.16
-0.464
-2.552
-14.064
-1.176
7.68
0.52
-1.24
1.424
-13.328
4.08
-2.544
-11.024
-2.608
-7.592
4.6
-4.76
4.576
-6.248
1.448
-1.16
-8.184
11.776
-14.872
-6.328
2.4
-14.856
-8.952
-11.976
-16.488
-13
-11.512
-16.056
1.264
3.384
5.16
5.736
-2.808
-10.432
-8
-6.4
6.056
-6.568
-6.744
-11.504
-22.16
-8.672
-2.064
-9.032
-3.808
-0.44
4.152
-6.528
-2.64
5.088
11.76
3.152
6.92
10.608
0.952
-9.08
-14.488
-0.376
4.032
-13.76
-9
1.024
-6.168
-7.608
-11.864
-10.52
-5.352
-10.776
-8.584
15.68
-7.2
-6.312
-6.36
-6.488
-1.776
-6.76
-0.592
-4.696
-1.024
-7.256
-7.56
-11.888
1.56
-1
3.576
6
17.56
7.096
-1.992
5.272
8.32
-3.848
-4.664
-4.608
-8.912
-9.2
-9.336
-2.304
-3.752
-12
-8.64
-23.072
-4.208
-6.728
-15.944
-13.08
-16.936
8.608
-3.544
5.848
3.4
0.008
-7.296
-11.848
-1
-9.04
-2.832
1.216
-2.168
-7.688
-17.8
-15.096
-14.344
-14
-13.36
-8.16
-6
-16.936
-6.704
-12.544
-10.64
0.04
-15.928
-13.696
-18.072
-21
-12.728
-16.008
-11.912
-18.144
-8.4
-9.816
12.624
-4.296
1.504
-16.4
-2.856
-9.048
-0.88
2.424
-14.4
-10.504
-6.488
-5.568
-7.624
8.44
3.184
-2.104
-2.968
-3.208
-13.6
-9.76
-15.92
1.512
1.208
-6.28
5.104
-0.232
5.984
12.032
-2.28
9.44
4.536
2.896
-14.272
-6.16
-6.048
1.496
-2.392
-16.952
-16.2
-15.488
-10.472
-3.368
-1.752
5.6
-12.328
10.92
-2.392
11.032
1.32
-8.12
5
10.768
-3.768
-9.12
-0.344
-11.368
5.488
-1
-0.24
-10.616
-9.624
-1.368
-2.424
2.36
2.536
0.296
-8.136
-15.376
6
10.664
8.848
-18.712
-6.768
-8.8
-5.544
9.008
-6.384
-7.088
-12.08
-2.752
-5.632
-7.232
-8.984
-9.08
-2.232
0.528
-20.824
-5.472
-10.8
17.848
-3.336
-1.416
0.088
-4.4
-8.712
-3.48
0.872
-11.784
-8.96
-14.216
-11.856
-6.248
-5.48
-13.24
-3.176
-21.296
-19.944
-11.488
-13.92
-11.936
-4.208
-10.384
-20.44
-22.88
-7.456
-9.024
-5.256
-14.056
-10.2
-15.552
-20.024
-9.232
-2.184
-10.92
-4.552
-3.168
-9.68
-12
-5.32
-19.352
-17.736
0.976
-11
-1.72
-1.824
-3.272
-0.864
5.008
-14.6
-3.368
-3.736
3.96
-9.896
-3.2
-10.664
-15.528
-12.904
-3.128
3.16
10.992
-7.592
0.824
-10.256
-19.36
-7.72
-2.296
-14.896
-8.36
-4.24
-1.68
-9.584
-6.248
-6.536
-5.2
4.152
-1.248
-5.816
1.224
-12
1.544
6.232
-6.712
-7.944
7.88
-3.672
7
5.816
3.504
-13.96
-15.376
-17.872
-14.12
-3.416
-11.08
-9.52
-8.16
-9.368
5.952
0.12
-2.728
-6.424
-6
-18.76
-3
-1.616
-7.656
-11.712
-17.576
-24.32
-17.136
-11.312
-12.84
-5.616
-17.92
-13.496
-14.184
-3.24
-6.032
1.24
-8.608
-7.608
-12.64
-12.616
-19.28
-11.992
-17.664
-1.52
-10.608
-17.2
-10.232
-3.328
-20.376
-20.256
-13.12
-3.512
-5.176
-5.68
-0.32
-8.4
0.72
-1.984
0.712
-8.952
-2.28
6.744
-19.048
-8.96
1.2
0.68
-2.792
-12.672
-9.256
-3.128
-6.4
7.896
-9.48
1.024
5.288
9.44
9.44
14.568
12.512
-6.496
-2.12
-7.488
14.616
-3.048
-14.56
-22.72
-6.816
-1.568
-4.68
-6.936
-7.48
5.408
4.016
16.472
17.416
14.6
9.184
5.52
-3.16
3.128
-10.96
-5.216
-6.256
-8.888
-5.672
-9.72
-4.976
-5.648
0.088
-3.72
-1
0.272
0.752
-5.248
7.88
-10
-3.432
-10.12
6.48
-10.296
2
6.568
-4.312
-13.824
-15.968
-9.84
-11.912
-11.136
-3.024
-22.68
-7.6
-2.672
-5.128
-7.392
-10.392
-4.52
2.136
4.696
-7.968
-6.272
-2
3.576
0.984
-6
-12.664
-11
-6.24
-5.632
-11.56
-11.04
-19.24
-10.984
-9.328
-11.472
-1.568
3.48
-4.36
5.544
-2.76
0.312
0.56
2.056
-4.688
-9.408
-9.56
-14.2
-13.952
-21.552
-11.52
3.568
-7
-7.776
-12.184
-1.408
2.336
-6.52
0.464
5.32
14.416
0.896
10.48
-1.744
5.12
4.584
-6.616
-6.28
-1.808
4.728
-10.552
3.112
2.72
-1.288
-8.488
-5.648
4.352
-2.8
13.76
-1.448
0.44
-4.672
-11.32
2.88
-5.304
1.216
-10.8
-18.44
-2.504
-14.808
-4.952
6.344
-4.48
6.672
-3.08
8.944
-2.952
-2.04
9.064
4.72
2.592
1.48
-13.2
1.944
10.136
-8.744
-9.584
-2.28
-18.44
-18.232
-9.824
0.04
0.12
-7.872
-14.6
-4.432
-4.184
2.92
-0.264
2.248
0.536
-6.632
0.04
-11.08
8.248
9.928
-1.216
-17.8
-22.392
-2.496
5.112
-4.016
8.64
0.792
-1.824
7.208
11.376
2.24
6
0.144
-1.456
-2.64
-10.52
-11.936
-16.24
-8.992
-7.408
-11.72
-15.152
-0.144
-19.384
-1
0
-5.712
-3.48
-2.888
-12.424
-1.48
-1.592
-2.944
-10.528
-6.632
5.6
0.808
-4.152
-3.616
-0.64
-11.84
-12.912
-17.656
-20.232
-24.032
-15.64
-18.904
3.328
-1.352
-10.304
-16
-3.728
6.784
-11.56
1.336
-9.64
-9.176
-0.824
-4.92
-11.632
-17.04
-1.448
-15.896
-11.64
-1.232
4.44
-3.32
-14.144
0.232
-12.56
0.64
-1.584
-3.816
-9.088
-2.408
-10.2
-7.896
-14.552
2.896
-10.736
-1.68
4.568
-12.944
-6
2.664
-4.84
-0.712
-9.76
2.928
5.64
-3.32
7.52
9
12.36
2.376
6.84
-3.328
-7.44
7.512
-3.696
-22.4
1.424
-11.088
-16.904
-2.04
0.12
-4.552
3.296
3.84
3.84
-7.52
0.104
-1.824
16.312
-0.64
-7.32
-0.264
3.68
2.464
-1.904
-6.84
-2.472
-4.312
-1.368
2.992
3.4
-9.696
-7.416
6.496
-2.848
-3.24
7.944
14.048
4.184
7.984
1.28
2.984
-1.12
-5.336
2.472
7.96
2.072
5.232
-12.672
-3.32
-8.64
-6.424
-5.288
-2.616
1.856
2
1.76
-1.288
-3.136
-1.232
-4.96
-2.472
-6.368
5.696
0.496
-15.68
-11.336
-7.848
-18.376
-16.56
-18.6
-22.912
-15.472
-15.592
-20.44
6.6
6.856
-14.544
-1
11.416
4.6
-3.232
-0.52
-5.592
-3.256
0.16
-1.144
-6.752
-6.496
-7.256
-1.48
4.104
-1.416
-4.408
-20.952
-0.56
-1.808
-6.032
-23.784
-15.104
-5.68
3.752
-7.416
3.04
1.2
-15
-16.176
3.48
-7.28
-2.592
-0.52
0.936
-1
0
-5.496
11.56
-6.488
7
-10.952
11.352
2.84
10.984
2.512
0.64
9.632
-2
0.96
-2.248
0.512
-1.76
0.2
-1
-6.48
-10.44
-1.832
-11.36
-2.008
-6.576
2.824
-6.904
0.84
-7.384
-7.888
-8.208
1.912
5
-0.576
-11.752
-8.608
-4.584
-10.84
1.136
-4.872
-10.928
-1.016
10
2.912
11.064
-9.328
-7.952
2.44
-2.44
-4.272
-20.584
4.088
-9.48
-7.592
-18.88
-7.912
30.288
52.8
-46.096
-21.776
-22.312
-22.288
3.4
4.424
2.432
-7.712
-15.808
-8
4.04
-11.808
-7.864
-15.656
-5.32
-13.832
-22.296
-6.92
-14.136
-10.12
-0.248
-2.696
-9.888
-5.36
-0.72
7.304
7.16
2.136
-11.032
-4.08
-1.984
-2.112
-6.88
5.52
-6
-3.984
-4.592
-9.84
-4.136
3.48
-3.024
-0.752
-2.248
0.104
2.2
-0.104
-5.672
3.416
5.64
-11.12
-4.064
-9.08
-12.384
-3.448
-2.44
-8.84
-16.536
-11.568
-4.48
-4.8
-16.76
4.952
7.368
-0.936
-3.68
2.064
12.168
0.512
-17.664
-7.64
-15.496
-6.072
-2
-15.784
12.12
-4.328
-10.784
-20.928
-8.072
-1.6
0.776
1.912
-8.48
-8.552
-2.4
-11.76
11.088
-2.256
-13.168
-9.76
2.544
-7
-2.24
-9.064
-16.56
-12.152
-8.824
-6.12
-11.72
-3.92
-6.056
1.744
1.432
5.976
0.68
15.648
-6.872
-2.888
1.752
3.2
6.608
10.376
7.728
13.88
-4.64
-4.528
0.048
-11
-29.912
5.16
-7.376
0.488
5.456
-7.864
-6.8
-3.704
-1.16
-3.352
5.016
4.04
-4.616
-15.712
-7.272
-8.288
1
4.848
-17.328
-17.408
-0.96
-6.56
1.576
0.008
-11.464
3.384
2.12
6.024
0.216
1.384
2.672
6.72
-0.928
6.952
-5.632
-0.616
0.8
-20.96
-5.384
-0.416
-11.568
1.4
-8.016
1.776
9
-10.096
2.44
0.56
-4.144
2.824
-5.008
-1.44
3.088
-7.104
-8.416
-2.384
-4.48
7.52
-4.888
-9.68
8.432
-9.84
-10.288
-15.464
-8.088
5.496
-2
-0.76
1.552
5.808
-2.184
2.92
-9.944
7.832
-2.296
-10.984
-6.92
-3.216
-16.024
-8.712
1.144
-10.92
-10.976
-10.024
-5.776
-1.688
-0.8
-11.592
9.368
-5.064
-4.176
-4.2
-2.72
-0.792
-21.464
-6.456
-15.76
-21.664
-9.28
-11.952
-9.872
-2.92
-7.256
-1.352
-6.448
-6.184
-1.32
9.264
6.832
6.288
-4.296
1.2
6.256
6.376
-1.704
4.752
-2.6
1.456
-1.52
2.992
-20.84
1.88
-5.088
-3.952
-17.952
6.896
-4.32
1.576
3.376
5.24
3.64
-0.72
9.472
5.616
5.944
9.576
-8.52
-2.04
-5.56
-4
-5.192
-6
-6.048
-1.424
-6.856
4.08
-5.16
2.24
8.336
-1.992
15.912
6.08
-6.672
-0.272
0.744
-6.064
-6.84
-10.376
-4.288
-4.544
0.032
-9.88
-8.968
-4.776
3.728
-6.088
1.8
-2.744
-4.264
6.904
-12.744
-10.28
-12.488
-3.536
-5.408
5.368
-5.12
-6.736
-8.12
-19.536
-9.64
-15.44
-1.192
-9.064
-19.192
-5.664
-0.28
-0.712
6.464
-10.536
2.664
-4.6
-7.208
-16.016
-16.104
-4.08
-11.68
-11.432
-20.04
-10.08
-14.84
-11.24
7.136
-13.88
-5.048
-6.28
1.72
-1.16
-7.488
-2.904
2.624
-10.88
-6.96
-4.296
-0.472
-2.072
-5
-9.536
-8.216
0.744
-8.96
-2.12
-0.008
8.232
8.968
1.808
9.52
4.104
2.12
1.656
8.184
-5.28
-11.104
-9.832
-5.328
-8.096
-13.52
-12.136
-10.872
-11.408
-4.224
-2
-7.328
-9.064
5.992
5.864
-10.68
2.296
9.368
0.288
6.912
-7.6
-1
-5.256
-6.184
0.976
-8.08
-11.704
3.376
-11.608
-4.864
-1.2
-11.344
-2.288
-11.424
3.232
-5
-4.808
-12.848
5.568
3.08
-3.96
-15.544
-4.696
-16.768
-4.816
-9.96
-0.192
-4.456
-7.64
-5.016
-9.28
-5.624
-7.896
-1.32
-10.088
-4.96
14.912
8.168
-4.064
2.152
-2.6
-0.512
-0.48
-2.496
-2.608
-7.44
-13.976
-1.96
-14.664
-3.048
-9.88
-20.112
-2.76
-7
6.512
-8.08
5.936
12.744
-6.04
8.312
1.48
1.752
-6.584
-1.176
-4.368
-0.6
-9.448
-12.984
-12.736
-11.816
-7.84
1.312
1.832
1.296
5.496
-9.84
0.216
4.24
-1.928
-6.928
-16.84
-20.488
-17.328
-6.904
2.248
-7.16
-9.96
-18.808
-6.464
-7.728
-10.6
-13.52
10.568
-3.304
-3.416
9.36
-4.552
-6.168
1
2.064
13.36
-3.72
-1.064
-5.24
-0.64
-2.84
-7.208
-10.92
-5.608
-9.856
-2.12
-6.136
-0.624
2.408
9.512
-3.2
9.48
9.88
2.048
-1.864
3.52
-0.736
-16.456
-23.632
-14.856
-14
-13.424
5.272
-10.968
-10.472
-9.52
3.32
-9.08
-7.368
-2.576
-8.04
4.312
3.568
3.096
-1.712
-11
-20.04
-2.656
-3.848
-14.504
-6
-14.376
-14.328
-12.768
-13.704
-18.52
-4.696
-7.544
-10.384
-7.528
-3.6
-1.464
-1.08
10.776
-15.152
-13.32
-0.92
-10.056
-7
-11.24
-11.6
-4.496
-12.52
-11.624
-7.864
-5.2
-8.048
-6.464
1.424
-7.896
-0.16
-1.272
14.864
22.192
5.208
9.52
-4.968
7.84
-4.128
0.32
0.36
1.248
-6.304
-1.176
-9.072
-0.8
-5.512
-4.464
-3.544
-8.96
-3.36
-10.504
2.68
-5.864
-7.16
-9.64
-9.928
-4.168
-5.12
-11.136
-15.56
-11.96
-2.944
-8.264
-6.368
1.08
-14.776
-10.736
-5.48
3.448
11.8
5.592
5.216
0.696
-0.168
0.64
-4.456
5.256
-7
-12.84
-15.28
-9.384
-9.816
-0.656
-9.376
-4.28
-5.944
-4.68
-0.536
-1.976
0.88
6.488
11.936
-1.232
4.496
5.2
4.328
-4.792
-1.056
0.88
-1
-6.56
4.144
-15.848
-8.464
-10.76
-6.736
1.136
-2.304
-5.328
-6.8
-1.432
-1
7.312
-1.816
-2.2
-8.848
-7.72
-16.328
-3.624
-7
-6.432
-8.232
-6.712
-3.304
-10.52
-3.88
-9.648
-11.384
-0.48
-13.88
-3.808
-5.392
10.496
6.968
2.56
-11.128
-12.136
-4
-8.68
-5.52
-6.968
6.992
-0.896
0.392
-14.4
-7.752
3.008
1.56
-7.96
-10.36
3.192
-1
0.752
4.792
-8.32
-10.904
-3.704
-6.888
3.976
-21.72
3
-3.224
-15.744
-10.776
-11.84
-1.328
-5.464
-1.56
-6.168
-7.8
-3.552
2.528
2.192
-0.368
10.44
-5.128
6.152
-11.296
-1.336
2.12
0.928
-10.096
-13.736
-12.856
0.76
-3.312
1.704
-3.888
-1.376
2.96
8.04
2.968
-0.464
8.24
3.4
-7.648
3.48
-4.024
-2.248
-14.16
-4.776
5.36
-13.904
-11.904
-25
-2.488
-1.472
-5.208
13.552
1.56
7.152
0.504
1.176
1.928
-4.6
-0.688
-14.624
-11.664
-17.512
-8.2
-12.216
-12.04
1.496
-3.08
-2.24
-1.44
-4.632
-6.976
-16.304
-3.08
-10.392
-2.008
-1.216
1.112
-15.24
-12.024
-12.544
-17.304
-1.272
-4.4
-14.232
-5.456
-23.272
-2.76
4
-0.76
-4.368
2.992
11.928
-5.4
3.712
1.336
10.232
11.52
6
-1.248
-1.968
5.512
-7.36
14.32
-12.056
-4.184
-14.736
-16.152
2.6
-15.84
-8.44
-9.584
-14.24
8.73E-11
-9.248
4.192
4.344
2.904
-12.44
-8.56
-8.104
-1.84
3.848
-0.32
-5.816
-3.552
-17.064
-7.952
-2.2
-1.968
-1.112
-9.912
3.336
4.48
3.296
2.952
3.784
-3.184
2.6
5.552
0.488
-6.824
-6.328
-6.28
-8.56
-15
-8.648
-14.152
-14.88
-0.296
-1.048
-0.168
14
-4.48
1.488
-7.84
-7.096
-2.688
-6.92
0.224
-5.104
0.448
-1.24
-2.2
-7.76
-16.088
0.024
-9.208
-4.12
5.864
0.72
-4.888
-9.032
-9.68
-0.36
-10.184
-9.12
3.272
-0.76
1.048
5.16
0.744
-2.192
-9.48
-9.096
-11.128
-13.52
-15.032
-10.2
-6.064
-4.416
8.272
-18.92
-6.44
3.088
-3.728
4.08
-2.088
-5.72
-11.704
7.624
1.152
3.528
-0.4
-8.32
-7.688
-1.024
-16.376
-10.64
0.88
-5.424
5.712
-6.904
3
4
7.712
1.584
-4.384
-2.44
1.88
6
-2.928
-3.84
-3.16
0.584
-16.792
-8.376
-21.328
-11.84
-7.768
16.552
-1.048
-9.472
1
1.16
-5.168
1.312
8.632
-3
3.512
-1.744
-7.16
-1.352
7.68
-2.928
-5.176
-0.344
-5.792
-1.04
-9.64
-4.552
-5.592
-11.232
-0.44
11.552
11.792
-10.72
10.456
-10.12
-10.88
-4.56
-8.696
-16.888
-5
-11.76
-13.504
-19.72
-1.656
-22.88
9.88
-9.208
3.192
-6.52
-6.92
-1.648
-12.928
5.192
12.496
-8.52
-0.192
-6.192
-6.584
-2.248
-11.2
-0.672
10.72
-5.96
-3.688
-13.8
-5.648
-7.344
1.976
6.336
-4.52
4.544
5.448
-4.016
4.424
-9.84
-5.872
-1.88
-8.88
-4.016
12.64
-0.264
-5.576
-16.248
6.168
0
6.824
-5.84
-3.48
2
4.8
5.28
6.168
16.216
10.992
5.52
12.384
-3.816
-9.528
-14.144
-10.4
-1.672
-10.864
-21.032
-9.032
-0.16
85.44
-55.376
-27.064
-31.696
-21.4
-25.424
-2.144
-18.08
6.712
4
-1.432
-13
-1.84
-9.272
-5.28
-4.728
-14.272
-11.696
-14.384
-7.84
-9.64
6.064
-5.136
-10.656
-7.04
-7
-4.312
1.544
-0.736
-7.32
0.872
-7.448
-9
-5.736
-1.4
-12.232
-2
-26.088
-10.472
