'Elapsed time','ECG','ECG'
0,-0.168,0.117
0.004,-0.158,0.117
0.008,-0.138,0.115
0.012,-0.14,0.098
0.016,-0.142,0.102
0.02,-0.16,0.095
0.024,-0.172,0.092
0.028,-0.165,0.092
0.032,-0.145,0.098
0.036,-0.138,0.11
0.04,-0.128,0.105
0.044,-0.13,0.107
0.048,-0.133,0.092
0.052,-0.145,0.09
0.056,-0.15,0.09
0.06,-0.165,0.1
0.064,-0.152,0.102
0.068,-0.14,0.1
0.072,-0.115,0.105
0.076,-0.113,0.105
0.08,-0.122,0.107
0.084,-0.13,0.092
0.088,-0.14,0.095
0.092,-0.145,0.072
0.096,-0.14,0.098
0.1,-0.135,0.113
0.104,-0.128,0.107
0.108,-0.122,0.102
0.112,-0.12,0.107
0.116,-0.117,0.09
0.12,-0.147,0.075
0.124,-0.155,0.077
0.128,-0.138,0.092
0.132,-0.142,0.1
0.136,-0.145,0.11
0.14,-0.13,0.098
0.144,-0.115,0.095
0.148,-0.125,0.09
0.152,-0.133,0.075
0.156,-0.147,0.085
0.16,-0.155,0.085
0.164,-0.155,0.077
0.168,-0.142,0.105
0.172,-0.14,0.107
0.176,-0.13,0.102
0.18,-0.142,0.092
0.184,-0.152,0.075
0.188,-0.16,0.083
0.192,-0.17,0.08
0.196,-0.17,0.07
0.2,-0.172,0.098
0.204,-0.158,0.1
0.208,-0.152,0.09
0.212,-0.147,0.087
0.216,-0.175,0.075
0.22,-0.177,0.065
0.224,-0.19,0.068
0.228,-0.195,0.083
0.232,-0.193,0.09
0.236,-0.188,0.098
0.24,-0.185,0.095
0.244,-0.193,0.087
0.248,-0.195,0.07
0.252,-0.212,0.06
0.256,-0.217,0.055
0.26,-0.225,0.07
0.264,-0.228,0.077
0.268,-0.223,0.098
0.272,-0.205,0.083
0.276,-0.193,0.09
0.28,-0.195,0.07
0.284,-0.228,0.07
0.288,-0.223,0.068
0.292,-0.233,0.08
0.296,-0.228,0.065
0.3,-0.217,0.095
0.304,-0.203,0.083
0.308,-0.205,0.085
0.312,-0.198,0.085
0.316,-0.205,0.068
0.32,-0.203,0.06
0.324,-0.205,0.05
0.328,-0.21,0.072
0.332,-0.203,0.075
0.336,-0.193,0.085
0.34,-0.188,0.085
0.344,-0.185,0.07
0.348,-0.188,0.072
0.352,-0.188,0.052
0.356,-0.203,0.05
0.36,-0.203,0.065
0.364,-0.193,0.07
0.368,-0.19,0.077
0.372,-0.185,0.08
0.376,-0.168,0.072
0.38,-0.17,0.062
0.384,-0.188,0.052
0.388,-0.188,0.06
0.392,-0.182,0.048
0.396,-0.19,0.058
0.4,-0.168,0.072
0.404,-0.152,0.065
0.408,-0.15,0.062
0.412,-0.15,0.07
0.416,-0.163,0.062
0.42,-0.165,0.048
0.424,-0.172,0.05
0.428,-0.17,0.052
0.432,-0.177,0.065
0.436,-0.163,0.075
0.44,-0.152,0.083
0.444,-0.147,0.072
0.448,-0.155,0.077
0.452,-0.165,0.045
0.456,-0.175,0.052
0.46,-0.18,0.048
0.464,-0.168,0.075
0.468,-0.122,0.098
0.472,-0.107,0.163
0.476,-0.072,0.223
0.48,-0.037,0.318
0.484,0.005,0.407
0.488,0.07,0.52
0.492,0.117,0.627
0.496,0.152,0.675
0.5,0.165,0.68
0.504,0.122,0.632
0.508,0.043,0.603
0.512,-0.06,0.565
0.516,-0.207,0.547
0.52,-0.333,0.54
0.524,-0.427,0.532
0.528,-0.515,0.53
0.532,-0.555,0.52
0.536,-0.593,0.495
0.54,-0.61,0.458
0.544,-0.615,0.4
0.548,-0.595,0.333
0.552,-0.568,0.268
0.556,-0.525,0.212
0.56,-0.49,0.163
0.564,-0.445,0.145
0.568,-0.415,0.11
0.572,-0.38,0.087
0.576,-0.352,0.065
0.58,-0.343,0.028
0.584,-0.318,-0.007
0.588,-0.295,-0.033
0.592,-0.278,-0.033
0.596,-0.253,-0.025
0.6,-0.237,-0.033
0.604,-0.217,-0.035
0.608,-0.2,-0.035
0.612,-0.195,-0.05
0.616,-0.19,-0.06
0.62,-0.203,-0.075
0.624,-0.223,-0.065
0.628,-0.21,-0.065
0.632,-0.195,-0.06
0.636,-0.2,-0.065
0.64,-0.18,-0.065
0.644,-0.172,-0.052
0.648,-0.18,-0.065
0.652,-0.188,-0.083
0.656,-0.195,-0.1
0.66,-0.21,-0.095
0.664,-0.195,-0.085
0.668,-0.185,-0.08
0.672,-0.175,-0.08
0.676,-0.172,-0.105
0.68,-0.165,-0.115
0.684,-0.17,-0.13
0.688,-0.177,-0.14
0.692,-0.18,-0.133
0.696,-0.175,-0.133
0.7,-0.172,-0.135
0.704,-0.16,-0.133
0.708,-0.16,-0.142
0.712,-0.15,-0.155
0.716,-0.152,-0.177
0.72,-0.158,-0.193
0.724,-0.168,-0.198
0.728,-0.158,-0.205
0.732,-0.158,-0.193
0.736,-0.145,-0.193
0.74,-0.125,-0.205
0.744,-0.117,-0.21
0.748,-0.12,-0.223
0.752,-0.13,-0.25
0.756,-0.133,-0.255
0.76,-0.13,-0.268
0.764,-0.113,-0.275
0.768,-0.09,-0.27
0.772,-0.065,-0.275
0.776,-0.052,-0.278
0.78,-0.052,-0.305
0.784,-0.03,-0.312
0.788,-0.028,-0.325
0.792,-0.013,-0.31
0.796,-0.003,-0.318
0.8,0.013,-0.3
0.804,0.03,-0.292
0.808,0.043,-0.29
0.812,0.043,-0.302
0.816,0.048,-0.31
0.82,0.04,-0.318
0.824,0.055,-0.31
0.828,0.07,-0.295
0.832,0.083,-0.278
0.836,0.117,-0.253
0.84,0.135,-0.26
0.844,0.15,-0.255
0.848,0.145,-0.26
0.852,0.145,-0.26
0.856,0.152,-0.242
0.86,0.152,-0.228
0.864,0.158,-0.215
0.868,0.175,-0.198
0.872,0.195,-0.185
0.876,0.2,-0.182
0.88,0.19,-0.182
0.884,0.163,-0.182
0.888,0.152,-0.18
0.892,0.135,-0.17
0.896,0.125,-0.155
0.9,0.117,-0.14
0.904,0.117,-0.12
0.908,0.117,-0.11
0.912,0.092,-0.12
0.916,0.068,-0.122
0.92,0.033,-0.122
0.924,0.003,-0.13
0.928,-0.01,-0.115
0.932,-0.025,-0.09
0.936,-0.02,-0.08
0.94,-0.015,-0.08
0.944,-0.022,-0.08
0.948,-0.037,-0.09
0.952,-0.05,-0.102
0.956,-0.077,-0.098
0.96,-0.085,-0.083
0.964,-0.1,-0.077
0.968,-0.09,-0.075
0.972,-0.087,-0.062
0.976,-0.087,-0.072
0.98,-0.09,-0.083
0.984,-0.102,-0.09
0.988,-0.117,-0.085
0.992,-0.128,-0.077
0.996,-0.13,-0.068
1,-0.115,-0.068
1.004,-0.12,-0.055
1.008,-0.115,-0.055
1.012,-0.117,-0.062
1.016,-0.115,-0.068
1.02,-0.122,-0.072
1.024,-0.135,-0.075
1.028,-0.14,-0.068
1.032,-0.138,-0.052
1.036,-0.13,-0.043
1.04,-0.12,-0.043
1.044,-0.13,-0.043
1.048,-0.135,-0.048
1.052,-0.14,-0.072
1.056,-0.155,-0.065
1.06,-0.145,-0.052
1.064,-0.155,-0.04
1.068,-0.138,-0.022
1.072,-0.138,-0.022
1.076,-0.128,-0.043
1.08,-0.133,-0.04
1.084,-0.145,-0.045
1.088,-0.165,-0.062
1.092,-0.155,-0.045
1.096,-0.152,-0.055
1.1,-0.142,-0.043
1.104,-0.14,-0.033
1.108,-0.142,-0.035
1.112,-0.133,-0.037
1.116,-0.142,-0.045
1.12,-0.158,-0.062
1.124,-0.158,-0.062
1.128,-0.16,-0.06
1.132,-0.15,-0.045
1.136,-0.135,-0.043
1.14,-0.125,-0.028
1.144,-0.122,-0.035
1.148,-0.128,-0.045
1.152,-0.147,-0.055
1.156,-0.15,-0.075
1.16,-0.155,-0.06
1.164,-0.147,-0.052
1.168,-0.142,-0.04
1.172,-0.135,-0.037
1.176,-0.125,-0.045
1.18,-0.133,-0.045
1.184,-0.13,-0.06
1.188,-0.145,-0.065
1.192,-0.155,-0.045
1.196,-0.147,-0.048
1.2,-0.14,-0.037
1.204,-0.13,-0.022
1.208,-0.13,-0.025
1.212,-0.135,-0.037
1.216,-0.138,-0.043
1.22,-0.155,-0.045
1.224,-0.17,-0.052
1.228,-0.165,-0.045
1.232,-0.17,-0.035
1.236,-0.158,-0.018
1.24,-0.147,-0.022
1.244,-0.145,-0.025
1.248,-0.152,-0.04
1.252,-0.152,-0.058
1.256,-0.142,-0.055
1.26,-0.155,-0.06
1.264,-0.147,-0.048
1.268,-0.142,-0.04
1.272,-0.138,-0.03
1.276,-0.13,-0.033
1.28,-0.128,-0.055
1.284,-0.135,-0.068
1.288,-0.138,-0.072
1.292,-0.16,-0.062
1.296,-0.16,-0.065
1.3,-0.142,-0.043
1.304,-0.14,-0.058
1.308,-0.125,-0.048
1.312,-0.133,-0.052
1.316,-0.145,-0.08
1.32,-0.142,-0.083
1.324,-0.16,-0.083
1.328,-0.152,-0.077
1.332,-0.152,-0.062
1.336,-0.133,-0.055
1.34,-0.13,-0.058
1.344,-0.125,-0.058
1.348,-0.135,-0.072
1.352,-0.135,-0.083
1.356,-0.152,-0.083
1.36,-0.147,-0.085
1.364,-0.152,-0.075
1.368,-0.152,-0.062
1.372,-0.138,-0.06
1.376,-0.13,-0.065
1.38,-0.125,-0.075
1.384,-0.142,-0.077
1.388,-0.152,-0.09
1.392,-0.163,-0.085
1.396,-0.152,-0.077
1.4,-0.147,-0.068
1.404,-0.142,-0.062
1.408,-0.138,-0.062
1.412,-0.135,-0.062
1.416,-0.145,-0.072
1.42,-0.15,-0.07
1.424,-0.165,-0.085
1.428,-0.17,-0.075
1.432,-0.158,-0.065
1.436,-0.16,-0.065
1.44,-0.14,-0.07
1.444,-0.135,-0.065
1.448,-0.135,-0.072
1.452,-0.147,-0.085
1.456,-0.142,-0.092
1.46,-0.152,-0.092
1.464,-0.155,-0.083
1.468,-0.133,-0.072
1.472,-0.13,-0.077
1.476,-0.13,-0.068
1.48,-0.135,-0.072
1.484,-0.145,-0.095
1.488,-0.15,-0.11
1.492,-0.158,-0.092
1.496,-0.152,-0.085
1.5,-0.158,-0.075
1.504,-0.15,-0.062
1.508,-0.135,-0.07
1.512,-0.135,-0.08
1.516,-0.147,-0.09
1.52,-0.152,-0.087
1.524,-0.163,-0.085
1.528,-0.16,-0.085
1.532,-0.16,-0.085
1.536,-0.155,-0.068
1.54,-0.142,-0.07
1.544,-0.14,-0.083
1.548,-0.14,-0.085
1.552,-0.128,-0.11
1.556,-0.147,-0.115
1.56,-0.152,-0.107
1.564,-0.138,-0.092
1.568,-0.135,-0.075
1.572,-0.107,-0.083
1.576,-0.107,-0.08
1.58,-0.113,-0.092
1.584,-0.11,-0.107
1.588,-0.125,-0.115
1.592,-0.135,-0.117
1.596,-0.142,-0.113
1.6,-0.138,-0.098
1.604,-0.12,-0.083
1.608,-0.107,-0.085
1.612,-0.105,-0.092
1.616,-0.117,-0.105
1.62,-0.12,-0.117
1.624,-0.133,-0.11
1.628,-0.142,-0.105
1.632,-0.13,-0.09
1.636,-0.122,-0.083
1.64,-0.113,-0.085
1.644,-0.12,-0.092
1.648,-0.115,-0.1
1.652,-0.135,-0.102
1.656,-0.15,-0.11
1.66,-0.138,-0.107
1.664,-0.138,-0.102
1.668,-0.135,-0.087
1.672,-0.117,-0.08
1.676,-0.122,-0.087
1.68,-0.13,-0.095
1.684,-0.135,-0.11
1.688,-0.14,-0.107
1.692,-0.135,-0.115
1.696,-0.147,-0.105
1.7,-0.142,-0.102
1.704,-0.133,-0.092
1.708,-0.115,-0.092
1.712,-0.122,-0.102
1.716,-0.13,-0.115
1.72,-0.152,-0.12
1.724,-0.155,-0.128
1.728,-0.17,-0.11
1.732,-0.158,-0.092
1.736,-0.145,-0.095
1.74,-0.138,-0.115
1.744,-0.13,-0.11
1.748,-0.125,-0.128
1.752,-0.128,-0.133
1.756,-0.133,-0.135
1.76,-0.135,-0.128
1.764,-0.135,-0.12
1.768,-0.125,-0.113
1.772,-0.117,-0.113
1.776,-0.102,-0.113
1.78,-0.102,-0.13
1.784,-0.113,-0.147
1.788,-0.125,-0.133
1.792,-0.135,-0.147
1.796,-0.122,-0.14
1.8,-0.128,-0.142
1.804,-0.117,-0.125
1.808,-0.12,-0.133
1.812,-0.1,-0.13
1.816,-0.113,-0.14
1.82,-0.122,-0.165
1.824,-0.135,-0.158
1.828,-0.14,-0.147
1.832,-0.142,-0.13
1.836,-0.122,-0.125
1.84,-0.117,-0.122
1.844,-0.113,-0.142
1.848,-0.12,-0.142
1.852,-0.117,-0.15
1.856,-0.133,-0.168
1.86,-0.138,-0.145
1.864,-0.135,-0.138
1.868,-0.128,-0.135
1.872,-0.12,-0.142
1.876,-0.113,-0.14
1.88,-0.117,-0.155
1.884,-0.122,-0.165
1.888,-0.125,-0.165
1.892,-0.152,-0.165
1.896,-0.142,-0.152
1.9,-0.122,-0.138
1.904,-0.12,-0.135
1.908,-0.122,-0.13
1.912,-0.12,-0.125
1.916,-0.133,-0.152
1.92,-0.147,-0.163
1.924,-0.152,-0.165
1.928,-0.16,-0.16
1.932,-0.155,-0.138
1.936,-0.122,-0.133
1.94,-0.107,-0.12
1.944,-0.102,-0.138
1.948,-0.11,-0.147
1.952,-0.117,-0.163
1.956,-0.138,-0.168
1.96,-0.142,-0.165
1.964,-0.13,-0.155
1.968,-0.122,-0.135
1.972,-0.1,-0.133
1.976,-0.098,-0.135
1.98,-0.107,-0.14
1.984,-0.105,-0.155
1.988,-0.12,-0.147
1.992,-0.138,-0.15
1.996,-0.117,-0.15
2,-0.1,-0.113
2.004,-0.068,-0.045
2.008,-0.025,0.04
2.012,0.035,0.17
2.016,0.1,0.292
2.02,0.16,0.398
2.024,0.198,0.465
2.028,0.223,0.468
2.032,0.223,0.45
2.036,0.175,0.422
2.04,0.13,0.4
2.044,0.052,0.365
2.048,-0.04,0.34
2.052,-0.138,0.323
2.056,-0.24,0.307
2.06,-0.315,0.292
2.064,-0.38,0.278
2.068,-0.43,0.237
2.072,-0.443,0.198
2.076,-0.43,0.125
2.08,-0.415,0.05
2.084,-0.385,0.005
2.088,-0.372,-0.037
2.092,-0.367,-0.06
2.096,-0.347,-0.095
2.1,-0.325,-0.1
2.104,-0.312,-0.135
2.108,-0.287,-0.165
2.112,-0.265,-0.2
2.116,-0.25,-0.22
2.12,-0.24,-0.245
2.124,-0.23,-0.242
2.128,-0.212,-0.247
2.132,-0.203,-0.26
2.136,-0.19,-0.233
2.14,-0.185,-0.24
2.144,-0.185,-0.253
2.148,-0.18,-0.268
2.152,-0.182,-0.278
2.156,-0.198,-0.28
2.16,-0.193,-0.278
2.164,-0.195,-0.273
2.168,-0.188,-0.26
2.172,-0.17,-0.263
2.176,-0.168,-0.268
2.18,-0.175,-0.285
2.184,-0.168,-0.297
2.188,-0.185,-0.305
2.192,-0.188,-0.318
2.196,-0.185,-0.302
2.2,-0.177,-0.305
2.204,-0.158,-0.3
2.208,-0.15,-0.315
2.212,-0.145,-0.31
2.216,-0.147,-0.335
2.22,-0.155,-0.35
2.224,-0.168,-0.347
2.228,-0.163,-0.355
2.232,-0.165,-0.35
2.236,-0.16,-0.35
2.24,-0.142,-0.357
2.244,-0.135,-0.36
2.248,-0.138,-0.383
2.252,-0.14,-0.4
2.256,-0.145,-0.403
2.26,-0.152,-0.42
2.264,-0.142,-0.415
2.268,-0.128,-0.422
2.272,-0.107,-0.427
2.276,-0.09,-0.438
2.28,-0.095,-0.46
2.284,-0.092,-0.477
2.288,-0.107,-0.502
2.292,-0.1,-0.482
2.296,-0.105,-0.485
2.3,-0.09,-0.477
2.304,-0.062,-0.485
2.308,-0.045,-0.492
2.312,-0.037,-0.5
2.316,-0.035,-0.517
2.32,-0.025,-0.522
2.324,-0.02,-0.53
2.328,-0.01,-0.51
2.332,0.01,-0.505
2.336,0.018,-0.497
2.34,0.037,-0.477
2.344,0.055,-0.485
2.348,0.07,-0.492
2.352,0.06,-0.497
2.356,0.065,-0.492
2.36,0.07,-0.472
2.364,0.095,-0.468
2.368,0.107,-0.463
2.372,0.138,-0.435
2.376,0.152,-0.43
2.38,0.168,-0.438
2.384,0.16,-0.43
2.388,0.158,-0.432
2.392,0.163,-0.42
2.396,0.165,-0.398
2.4,0.17,-0.39
2.404,0.177,-0.362
2.408,0.193,-0.36
2.412,0.195,-0.35
2.416,0.185,-0.362
2.42,0.165,-0.36
2.424,0.152,-0.35
2.428,0.142,-0.338
2.432,0.122,-0.312
2.436,0.12,-0.295
2.44,0.11,-0.292
2.444,0.098,-0.292
2.448,0.09,-0.29
2.452,0.068,-0.295
2.456,0.04,-0.282
2.46,0.018,-0.27
2.464,0,-0.265
2.468,-0.003,-0.258
2.472,0,-0.237
2.476,-0.003,-0.253
2.48,-0.022,-0.24
2.484,-0.048,-0.253
2.488,-0.058,-0.242
2.492,-0.072,-0.25
2.496,-0.075,-0.24
2.5,-0.072,-0.225
2.504,-0.065,-0.215
2.508,-0.05,-0.212
2.512,-0.062,-0.217
2.516,-0.058,-0.225
2.52,-0.077,-0.24
2.524,-0.08,-0.23
2.528,-0.083,-0.217
2.532,-0.087,-0.205
2.536,-0.077,-0.203
2.54,-0.065,-0.19
2.544,-0.058,-0.205
2.548,-0.065,-0.207
2.552,-0.062,-0.237
2.556,-0.08,-0.23
2.56,-0.095,-0.22
2.564,-0.095,-0.21
2.568,-0.085,-0.195
2.572,-0.072,-0.193
2.576,-0.062,-0.195
2.58,-0.075,-0.205
2.584,-0.085,-0.203
2.588,-0.105,-0.205
2.592,-0.113,-0.203
2.596,-0.11,-0.19
2.6,-0.113,-0.185
2.604,-0.095,-0.185
2.608,-0.072,-0.172
2.612,-0.083,-0.188
2.616,-0.083,-0.188
2.62,-0.107,-0.193
2.624,-0.105,-0.198
2.628,-0.115,-0.203
2.632,-0.102,-0.18
2.636,-0.095,-0.18
2.64,-0.092,-0.175
2.644,-0.085,-0.18
2.648,-0.08,-0.203
2.652,-0.092,-0.2
2.656,-0.107,-0.203
2.66,-0.105,-0.193
2.664,-0.102,-0.19
2.668,-0.105,-0.168
2.672,-0.09,-0.177
2.676,-0.077,-0.177
2.68,-0.1,-0.177
2.684,-0.098,-0.198
2.688,-0.122,-0.19
2.692,-0.12,-0.195
2.696,-0.11,-0.19
2.7,-0.11,-0.18
2.704,-0.113,-0.17
2.708,-0.098,-0.168
2.712,-0.092,-0.165
2.716,-0.092,-0.165
2.72,-0.105,-0.182
2.724,-0.115,-0.198
2.728,-0.13,-0.193
2.732,-0.113,-0.177
2.736,-0.09,-0.165
2.74,-0.083,-0.158
2.744,-0.098,-0.165
2.748,-0.092,-0.172
2.752,-0.1,-0.177
2.756,-0.122,-0.185
2.76,-0.115,-0.165
2.764,-0.12,-0.158
2.768,-0.113,-0.147
2.772,-0.1,-0.152
2.776,-0.102,-0.138
2.78,-0.107,-0.155
2.784,-0.122,-0.16
2.788,-0.125,-0.16
2.792,-0.135,-0.145
2.796,-0.125,-0.152
2.8,-0.11,-0.15
2.804,-0.095,-0.14
2.808,-0.102,-0.15
2.812,-0.098,-0.16
2.816,-0.095,-0.172
2.82,-0.098,-0.175
2.824,-0.117,-0.175
2.828,-0.117,-0.172
2.832,-0.11,-0.17
2.836,-0.1,-0.147
2.84,-0.09,-0.14
2.844,-0.083,-0.15
2.848,-0.08,-0.177
2.852,-0.092,-0.172
2.856,-0.11,-0.175
2.86,-0.105,-0.175
2.864,-0.12,-0.168
2.868,-0.105,-0.15
2.872,-0.092,-0.15
2.876,-0.083,-0.16
2.88,-0.087,-0.168
2.884,-0.095,-0.18
2.888,-0.11,-0.185
2.892,-0.117,-0.177
2.896,-0.12,-0.172
2.9,-0.102,-0.158
2.904,-0.095,-0.16
2.908,-0.09,-0.152
2.912,-0.087,-0.17
2.916,-0.098,-0.175
2.92,-0.107,-0.188
2.924,-0.117,-0.17
2.928,-0.115,-0.172
2.932,-0.105,-0.16
2.936,-0.095,-0.163
2.94,-0.09,-0.155
2.944,-0.072,-0.155
2.948,-0.087,-0.172
2.952,-0.095,-0.182
2.956,-0.11,-0.188
2.96,-0.115,-0.175
2.964,-0.117,-0.168
2.968,-0.102,-0.163
2.972,-0.085,-0.152
2.976,-0.072,-0.152
2.98,-0.072,-0.168
2.984,-0.092,-0.177
2.988,-0.098,-0.177
2.992,-0.1,-0.172
2.996,-0.098,-0.163
3,-0.095,-0.155
3.004,-0.07,-0.145
3.008,-0.07,-0.145
3.012,-0.068,-0.16
3.016,-0.072,-0.17
3.02,-0.08,-0.17
3.024,-0.098,-0.163
3.028,-0.105,-0.163
3.032,-0.1,-0.155
3.036,-0.087,-0.15
3.04,-0.087,-0.145
3.044,-0.077,-0.158
3.048,-0.08,-0.17
3.052,-0.09,-0.168
3.056,-0.105,-0.17
3.06,-0.11,-0.172
3.064,-0.102,-0.158
3.068,-0.095,-0.15
3.072,-0.087,-0.14
3.076,-0.077,-0.145
3.08,-0.077,-0.165
3.084,-0.09,-0.177
3.088,-0.095,-0.175
3.092,-0.092,-0.182
3.096,-0.09,-0.163
3.1,-0.09,-0.155
3.104,-0.083,-0.152
3.108,-0.07,-0.147
3.112,-0.07,-0.163
3.116,-0.08,-0.165
3.12,-0.09,-0.175
3.124,-0.098,-0.175
3.128,-0.098,-0.168
3.132,-0.092,-0.155
3.136,-0.08,-0.152
3.14,-0.07,-0.158
3.144,-0.072,-0.147
3.148,-0.075,-0.158
3.152,-0.085,-0.168
3.156,-0.092,-0.175
3.16,-0.098,-0.165
3.164,-0.087,-0.163
3.168,-0.083,-0.142
3.172,-0.068,-0.155
3.176,-0.068,-0.145
3.18,-0.068,-0.15
3.184,-0.08,-0.175
3.188,-0.087,-0.168
3.192,-0.102,-0.172
3.196,-0.085,-0.175
3.2,-0.085,-0.158
3.204,-0.072,-0.152
3.208,-0.083,-0.147
3.212,-0.07,-0.152
3.216,-0.065,-0.175
3.22,-0.08,-0.175
3.224,-0.09,-0.172
3.228,-0.085,-0.17
3.232,-0.092,-0.158
3.236,-0.075,-0.145
3.24,-0.072,-0.158
3.244,-0.06,-0.158
3.248,-0.062,-0.158
3.252,-0.083,-0.177
3.256,-0.083,-0.18
3.26,-0.087,-0.168
3.264,-0.087,-0.165
3.268,-0.08,-0.152
3.272,-0.068,-0.15
3.276,-0.06,-0.152
3.28,-0.065,-0.165
3.284,-0.08,-0.177
3.288,-0.092,-0.18
3.292,-0.092,-0.172
3.296,-0.087,-0.177
3.3,-0.087,-0.168
3.304,-0.068,-0.168
3.308,-0.065,-0.155
3.312,-0.052,-0.17
3.316,-0.055,-0.188
3.32,-0.075,-0.185
3.324,-0.077,-0.195
3.328,-0.08,-0.185
3.332,-0.087,-0.182
3.336,-0.072,-0.16
3.34,-0.062,-0.168
3.344,-0.06,-0.175
3.348,-0.06,-0.18
3.352,-0.075,-0.19
3.356,-0.09,-0.182
3.36,-0.092,-0.175
3.364,-0.09,-0.17
3.368,-0.077,-0.16
3.372,-0.062,-0.158
3.376,-0.06,-0.168
3.38,-0.062,-0.17
3.384,-0.07,-0.172
3.388,-0.085,-0.185
3.392,-0.098,-0.185
3.396,-0.087,-0.193
3.4,-0.075,-0.165
3.404,-0.072,-0.165
3.408,-0.065,-0.165
3.412,-0.065,-0.165
3.416,-0.07,-0.17
3.42,-0.075,-0.188
3.424,-0.085,-0.175
3.428,-0.077,-0.188
3.432,-0.08,-0.17
3.436,-0.07,-0.16
3.44,-0.052,-0.158
3.444,-0.037,-0.158
3.448,-0.052,-0.18
3.452,-0.062,-0.175
3.456,-0.07,-0.2
3.46,-0.08,-0.182
3.464,-0.058,-0.17
3.468,-0.075,-0.165
3.472,-0.06,-0.155
3.476,-0.05,-0.158
3.48,-0.052,-0.163
3.484,-0.06,-0.177
3.488,-0.083,-0.175
3.492,-0.075,-0.175
3.496,-0.092,-0.185
3.5,-0.083,-0.163
3.504,-0.062,-0.16
3.508,-0.045,-0.16
3.512,-0.058,-0.165
3.516,-0.048,-0.163
3.52,-0.068,-0.193
3.524,-0.083,-0.185
3.528,-0.075,-0.177
3.532,-0.072,-0.16
3.536,-0.065,-0.152
3.54,-0.045,-0.15
3.544,-0.045,-0.155
3.548,-0.062,-0.16
3.552,-0.072,-0.17
3.556,-0.08,-0.16
3.56,-0.08,-0.16
3.564,-0.077,-0.147
3.568,-0.06,-0.14
3.572,-0.035,-0.128
3.576,-0.028,-0.12
3.58,0,-0.083
3.584,0.018,-0.013
3.588,0.048,0.102
3.592,0.102,0.247
3.596,0.185,0.398
3.6,0.265,0.485
3.604,0.307,0.492
3.608,0.302,0.46
3.612,0.253,0.425
3.616,0.177,0.39
3.62,0.085,0.352
3.624,-0.013,0.35
3.628,-0.113,0.34
3.632,-0.22,0.335
3.636,-0.318,0.338
3.64,-0.398,0.325
3.644,-0.46,0.287
3.648,-0.51,0.23
3.652,-0.53,0.163
3.656,-0.522,0.1
3.66,-0.482,0.04
3.664,-0.422,0
3.668,-0.372,-0.02
3.672,-0.315,-0.045
3.676,-0.297,-0.08
3.68,-0.282,-0.115
3.684,-0.278,-0.15
3.688,-0.273,-0.193
3.692,-0.247,-0.212
3.696,-0.21,-0.22
3.7,-0.17,-0.23
3.704,-0.135,-0.233
3.708,-0.107,-0.245
3.712,-0.105,-0.255
3.716,-0.1,-0.263
3.72,-0.12,-0.268
3.724,-0.11,-0.263
3.728,-0.115,-0.282
3.732,-0.102,-0.27
3.736,-0.098,-0.265
3.74,-0.09,-0.258
3.744,-0.072,-0.263
3.748,-0.08,-0.268
3.752,-0.098,-0.295
3.756,-0.098,-0.3
3.76,-0.092,-0.29
3.764,-0.09,-0.292
3.768,-0.09,-0.275
3.772,-0.072,-0.27
3.776,-0.065,-0.278
3.78,-0.07,-0.285
3.784,-0.065,-0.297
3.788,-0.075,-0.312
3.792,-0.087,-0.318
3.796,-0.087,-0.32
3.8,-0.083,-0.295
3.804,-0.062,-0.302
3.808,-0.058,-0.312
3.812,-0.048,-0.325
3.816,-0.062,-0.345
3.82,-0.075,-0.357
3.824,-0.07,-0.35
3.828,-0.06,-0.357
3.832,-0.062,-0.365
3.836,-0.058,-0.36
3.84,-0.037,-0.37
3.844,-0.02,-0.378
3.848,-0.015,-0.403
3.852,-0.035,-0.42
3.856,-0.043,-0.412
3.86,-0.028,-0.432
3.864,-0.013,-0.435
3.868,-0.005,-0.417
3.872,0.013,-0.427
3.876,0.028,-0.435
3.88,0.03,-0.44
3.884,0.035,-0.45
3.888,0.025,-0.47
3.892,0.03,-0.47
3.896,0.043,-0.472
3.9,0.072,-0.455
3.904,0.092,-0.45
3.908,0.105,-0.453
3.912,0.138,-0.445
3.916,0.14,-0.463
3.92,0.142,-0.477
3.924,0.152,-0.468
3.928,0.16,-0.448
3.932,0.18,-0.427
3.936,0.21,-0.422
3.94,0.225,-0.422
3.944,0.253,-0.417
3.948,0.263,-0.42
3.952,0.265,-0.425
3.956,0.273,-0.42
3.96,0.275,-0.4
3.964,0.287,-0.383
3.968,0.307,-0.37
3.972,0.328,-0.355
3.976,0.318,-0.343
3.98,0.323,-0.333
3.984,0.3,-0.338
3.988,0.282,-0.335
3.992,0.27,-0.32
3.996,0.255,-0.302
4,0.25,-0.275
4.004,0.237,-0.263
4.008,0.225,-0.263
4.012,0.19,-0.253
4.016,0.177,-0.24
4.02,0.152,-0.25
4.024,0.13,-0.247
4.028,0.105,-0.24
4.032,0.092,-0.223
4.036,0.095,-0.21
4.04,0.098,-0.21
4.044,0.077,-0.212
4.048,0.058,-0.223
4.052,0.048,-0.233
4.056,0.037,-0.237
4.06,0.022,-0.23
4.064,0.013,-0.215
4.068,0.01,-0.205
4.072,0.018,-0.2
4.076,0.018,-0.2
4.08,0.013,-0.207
4.084,-0.005,-0.207
4.088,-0.01,-0.207
4.092,-0.022,-0.212
4.096,-0.022,-0.193
4.1,-0.028,-0.172
4.104,-0.01,-0.165
4.108,-0.003,-0.155
4.112,-0.003,-0.147
4.116,-0.015,-0.168
4.12,-0.025,-0.18
4.124,-0.037,-0.17
4.128,-0.037,-0.172
4.132,-0.048,-0.163
4.136,-0.033,-0.135
4.14,-0.022,-0.135
4.144,-0.01,-0.138
4.148,-0.02,-0.155
4.152,-0.037,-0.163
4.156,-0.043,-0.168
4.16,-0.052,-0.16
4.164,-0.048,-0.152
4.168,-0.04,-0.14
4.172,-0.03,-0.138
4.176,-0.025,-0.145
4.18,-0.028,-0.15
4.184,-0.035,-0.16
4.188,-0.035,-0.165
4.192,-0.05,-0.158
4.196,-0.05,-0.155
4.2,-0.045,-0.138
4.204,-0.037,-0.133
4.208,-0.033,-0.13
4.212,-0.022,-0.128
4.216,-0.035,-0.147
4.22,-0.04,-0.155
4.224,-0.055,-0.147
4.228,-0.06,-0.145
4.232,-0.045,-0.142
4.236,-0.05,-0.128
4.24,-0.058,-0.125
4.244,-0.035,-0.133
4.248,-0.04,-0.147
4.252,-0.048,-0.158
4.256,-0.055,-0.145
4.26,-0.055,-0.155
4.264,-0.05,-0.135
4.268,-0.045,-0.117
4.272,-0.025,-0.142
4.276,-0.015,-0.138
4.28,-0.028,-0.145
4.284,-0.035,-0.155
4.288,-0.037,-0.155
4.292,-0.048,-0.16
4.296,-0.045,-0.152
4.3,-0.03,-0.135
4.304,-0.03,-0.14
4.308,-0.025,-0.135
4.312,-0.02,-0.14
4.316,-0.033,-0.16
4.32,-0.048,-0.158
4.324,-0.062,-0.168
4.328,-0.058,-0.145
4.332,-0.068,-0.14
4.336,-0.04,-0.125
4.34,-0.04,-0.125
4.344,-0.033,-0.12
4.348,-0.043,-0.147
4.352,-0.058,-0.147
4.356,-0.072,-0.15
4.36,-0.085,-0.14
4.364,-0.075,-0.135
4.368,-0.068,-0.122
4.372,-0.045,-0.12
4.376,-0.022,-0.133
4.38,-0.02,-0.15
4.384,-0.028,-0.172
4.388,-0.04,-0.172
4.392,-0.048,-0.177
4.396,-0.05,-0.15
4.4,-0.035,-0.16
4.404,-0.028,-0.15
4.408,-0.02,-0.138
4.412,-0.015,-0.145
4.416,-0.025,-0.16
4.42,-0.043,-0.158
4.424,-0.05,-0.165
4.428,-0.045,-0.168
4.432,-0.04,-0.145
4.436,-0.04,-0.147
4.44,-0.03,-0.147
4.444,-0.022,-0.147
4.448,-0.028,-0.15
4.452,-0.035,-0.172
4.456,-0.04,-0.172
4.46,-0.06,-0.17
4.464,-0.043,-0.172
4.468,-0.033,-0.17
4.472,-0.025,-0.165
4.476,-0.01,-0.17
4.48,-0.015,-0.17
4.484,-0.03,-0.182
4.488,-0.04,-0.18
4.492,-0.045,-0.16
4.496,-0.043,-0.155
4.5,-0.037,-0.138
4.504,-0.022,-0.13
4.508,-0.005,-0.12
4.512,-0.013,-0.13
4.516,-0.013,-0.138
4.52,-0.025,-0.155
4.524,-0.04,-0.14
4.528,-0.04,-0.135
4.532,-0.04,-0.117
4.536,-0.018,-0.117
4.54,-0.02,-0.12
4.544,-0.022,-0.105
4.548,-0.015,-0.12
4.552,-0.033,-0.133
4.556,-0.033,-0.135
4.56,-0.025,-0.147
4.564,-0.037,-0.122
4.568,-0.033,-0.113
4.572,-0.003,-0.098
4.576,-0.01,-0.115
4.58,-0.01,-0.13
4.584,-0.01,-0.133
4.588,-0.028,-0.13
4.592,-0.035,-0.128
4.596,-0.03,-0.12
4.6,-0.018,-0.11
4.604,-0.018,-0.102
4.608,0,-0.105
4.612,-0.003,-0.102
4.616,-0.013,-0.115
4.62,-0.028,-0.122
4.624,-0.028,-0.115
4.628,-0.03,-0.115
4.632,-0.018,-0.1
4.636,-0.015,-0.102
4.64,-0.005,-0.09
4.644,-0.003,-0.102
4.648,-0.007,-0.115
4.652,-0.013,-0.13
4.656,-0.015,-0.122
4.66,-0.018,-0.12
4.664,-0.025,-0.113
4.668,-0.01,-0.087
4.672,0,-0.095
4.676,0.003,-0.105
4.68,0,-0.12
4.684,-0.02,-0.12
4.688,-0.025,-0.13
4.692,-0.028,-0.133
4.696,-0.025,-0.122
4.7,-0.015,-0.113
4.704,0,-0.105
4.708,0.003,-0.105
4.712,0.005,-0.102
4.716,0.003,-0.125
4.72,-0.01,-0.142
4.724,-0.025,-0.13
4.728,-0.022,-0.125
4.732,-0.02,-0.13
4.736,-0.015,-0.115
4.74,-0.005,-0.117
4.744,0,-0.11
4.748,-0.007,-0.117
4.752,-0.018,-0.128
4.756,-0.03,-0.125
4.76,-0.037,-0.13
4.764,-0.028,-0.14
4.768,-0.013,-0.125
4.772,-0.005,-0.11
4.776,-0.015,-0.128
4.78,0,-0.142
4.784,-0.013,-0.152
4.788,-0.037,-0.16
4.792,-0.037,-0.158
4.796,-0.022,-0.147
4.8,-0.018,-0.135
4.804,0,-0.138
4.808,0.003,-0.13
4.812,0.005,-0.125
4.816,0.003,-0.133
4.82,-0.005,-0.14
4.824,-0.005,-0.122
4.828,-0.022,-0.117
4.832,-0.018,-0.095
4.836,-0.003,-0.077
4.84,0,-0.08
4.844,0.007,-0.075
4.848,0,-0.09
4.852,-0.007,-0.087
4.856,-0.02,-0.098
4.86,-0.028,-0.087
4.864,-0.02,-0.08
4.868,-0.013,-0.068
4.872,0,-0.068
4.876,0.01,-0.062
4.88,0.013,-0.068
4.884,0,-0.068
4.888,-0.015,-0.085
4.892,-0.02,-0.083
4.896,-0.015,-0.08
4.9,-0.018,-0.068
4.904,0.005,-0.06
4.908,0.01,-0.052
4.912,0.028,-0.07
4.916,0.007,-0.083
4.92,0,-0.087
4.924,-0.007,-0.083
4.928,-0.013,-0.083
4.932,-0.005,-0.068
4.936,0.005,-0.06
4.94,0.015,-0.055
4.944,0.013,-0.058
4.948,0.01,-0.06
4.952,0.005,-0.085
4.956,-0.003,-0.085
4.96,-0.013,-0.083
4.964,-0.015,-0.077
4.968,-0.007,-0.062
4.972,0.007,-0.055
4.976,0.013,-0.068
4.98,0.013,-0.087
4.984,-0.007,-0.092
4.988,-0.015,-0.1
4.992,-0.028,-0.095
4.996,-0.022,-0.1
5,-0.007,-0.08
5.004,0.003,-0.08
5.008,0.005,-0.087
5.012,0.015,-0.095
5.016,0.015,-0.107
5.02,0.003,-0.117
5.024,-0.005,-0.115
5.028,-0.02,-0.113
5.032,-0.013,-0.102
5.036,0,-0.098
5.04,0.003,-0.095
5.044,0.013,-0.105
5.048,0,-0.115
5.052,0,-0.138
5.056,-0.01,-0.138
5.06,-0.015,-0.13
5.064,-0.007,-0.113
5.068,-0.003,-0.09
5.072,0.01,-0.09
5.076,0.022,-0.107
5.08,0.013,-0.107
5.084,0.003,-0.11
5.088,-0.005,-0.122
5.092,-0.01,-0.117
5.096,-0.005,-0.102
5.1,-0.005,-0.107
5.104,0.015,-0.102
5.108,0.025,-0.105
5.112,0.043,-0.087
5.116,0.065,-0.06
5.12,0.065,-0.01
5.124,0.098,0.105
5.128,0.152,0.255
5.132,0.21,0.42
5.136,0.29,0.532
5.14,0.335,0.552
5.144,0.338,0.517
5.148,0.275,0.445
5.152,0.182,0.405
5.156,0.065,0.378
5.16,-0.02,0.388
5.164,-0.11,0.378
5.168,-0.17,0.385
5.172,-0.223,0.372
5.176,-0.255,0.352
5.18,-0.312,0.31
5.184,-0.357,0.25
5.188,-0.395,0.2
5.192,-0.383,0.133
5.196,-0.35,0.083
5.2,-0.302,0.043
5.204,-0.242,0.02
5.208,-0.22,-0.013
5.212,-0.217,-0.04
5.216,-0.215,-0.072
5.22,-0.23,-0.105
5.224,-0.223,-0.133
5.228,-0.195,-0.16
5.232,-0.16,-0.165
5.236,-0.105,-0.165
5.24,-0.072,-0.168
5.244,-0.06,-0.172
5.248,-0.06,-0.18
5.252,-0.068,-0.198
5.256,-0.077,-0.2
5.26,-0.077,-0.205
5.264,-0.075,-0.195
5.268,-0.068,-0.185
5.272,-0.052,-0.188
5.276,-0.052,-0.198
5.28,-0.05,-0.205
5.284,-0.05,-0.21
5.288,-0.075,-0.215
5.292,-0.083,-0.212
5.296,-0.077,-0.215
5.3,-0.07,-0.207
5.304,-0.055,-0.215
5.308,-0.035,-0.22
5.312,-0.052,-0.24
5.316,-0.045,-0.233
5.32,-0.06,-0.253
5.324,-0.062,-0.242
5.328,-0.065,-0.255
5.332,-0.05,-0.235
5.336,-0.04,-0.24
5.34,-0.028,-0.253
5.344,-0.03,-0.25
5.348,-0.028,-0.265
5.352,-0.037,-0.285
5.356,-0.045,-0.295
5.36,-0.043,-0.302
5.364,-0.033,-0.295
5.368,-0.04,-0.297
5.372,-0.01,-0.287
5.376,-0.01,-0.297
5.38,0,-0.31
5.384,-0.013,-0.325
5.388,-0.018,-0.347
5.392,-0.018,-0.35
5.396,0,-0.343
5.4,-0.003,-0.352
5.404,0.028,-0.35
5.408,0.028,-0.365
5.412,0.03,-0.385
5.416,0.033,-0.398
5.42,0.037,-0.407
5.424,0.035,-0.403
5.428,0.055,-0.4
5.432,0.058,-0.395
5.436,0.077,-0.395
5.44,0.09,-0.39
5.444,0.1,-0.4
5.448,0.107,-0.415
5.452,0.115,-0.43
5.456,0.117,-0.41
5.46,0.128,-0.415
5.464,0.147,-0.415
5.468,0.168,-0.388
5.472,0.19,-0.372
5.476,0.217,-0.367
5.48,0.233,-0.383
5.484,0.23,-0.375
5.488,0.233,-0.367
5.492,0.247,-0.367
5.496,0.255,-0.35
5.5,0.275,-0.335
5.504,0.285,-0.307
5.508,0.307,-0.312
5.512,0.325,-0.307
5.516,0.323,-0.302
5.52,0.305,-0.307
5.524,0.292,-0.285
5.528,0.28,-0.285
5.532,0.295,-0.263
5.536,0.287,-0.235
5.54,0.297,-0.242
5.544,0.295,-0.233
5.548,0.26,-0.24
5.552,0.217,-0.22
5.556,0.195,-0.215
5.56,0.177,-0.21
5.564,0.155,-0.203
5.568,0.152,-0.188
5.572,0.15,-0.17
5.576,0.142,-0.17
5.58,0.125,-0.177
5.584,0.113,-0.172
5.588,0.08,-0.17
5.592,0.07,-0.182
5.596,0.055,-0.155
5.6,0.048,-0.145
5.604,0.048,-0.142
5.608,0.058,-0.142
5.612,0.037,-0.138
5.616,0.022,-0.163
5.62,0.018,-0.158
5.624,0.007,-0.158
5.628,0.003,-0.14
5.632,0,-0.14
5.636,0.005,-0.128
5.64,0.022,-0.12
5.644,0.022,-0.12
5.648,0.015,-0.14
5.652,0.003,-0.14
5.656,0.003,-0.142
5.66,-0.01,-0.135
5.664,0,-0.11
5.668,0.003,-0.117
5.672,0.007,-0.107
5.676,0.013,-0.107
5.68,0.02,-0.117
5.684,0.003,-0.12
5.688,-0.003,-0.125
5.692,-0.013,-0.117
5.696,-0.015,-0.113
5.7,-0.007,-0.098
5.704,0.003,-0.095
5.708,0,-0.098
5.712,0.013,-0.102
5.716,0,-0.107
5.72,-0.007,-0.12
5.724,-0.018,-0.122
5.728,-0.025,-0.11
5.732,-0.028,-0.102
5.736,-0.013,-0.09
5.74,0,-0.083
5.744,0.005,-0.098
5.748,0.005,-0.107
5.752,-0.01,-0.122
5.756,-0.02,-0.117
5.76,-0.01,-0.125
5.764,-0.013,-0.1
5.768,-0.013,-0.1
5.772,0.003,-0.095
5.776,0.01,-0.098
5.78,0.003,-0.102
5.784,0.003,-0.113
5.788,-0.013,-0.11
5.792,-0.033,-0.117
5.796,-0.02,-0.102
5.8,-0.013,-0.087
5.804,-0.005,-0.092
5.808,0,-0.08
5.812,0.007,-0.085
5.816,0,-0.107
5.82,-0.007,-0.107
5.824,-0.02,-0.095
5.828,-0.02,-0.115
5.832,-0.025,-0.1
5.836,-0.018,-0.075
5.84,0,-0.085
5.844,0.003,-0.09
5.848,0.005,-0.09
5.852,-0.01,-0.1
5.856,-0.02,-0.115
5.86,-0.028,-0.098
5.864,-0.02,-0.09
5.868,-0.015,-0.07
5.872,-0.02,-0.07
5.876,-0.003,-0.062
5.88,-0.015,-0.08
5.884,-0.03,-0.08
5.888,-0.048,-0.087
5.892,-0.048,-0.077
5.896,-0.05,-0.065
5.9,-0.052,-0.055
5.904,-0.033,-0.052
5.908,-0.037,-0.05
5.912,-0.022,-0.058
5.916,-0.02,-0.087
5.92,-0.033,-0.083
5.924,-0.033,-0.09
5.928,-0.037,-0.095
5.932,-0.04,-0.09
5.936,-0.015,-0.072
5.94,-0.02,-0.065
5.944,-0.01,-0.075
5.948,-0.015,-0.085
5.952,-0.013,-0.095
5.956,-0.033,-0.1
5.96,-0.03,-0.092
5.964,-0.022,-0.085
5.968,0,-0.07
5.972,0,-0.068
5.976,0.003,-0.075
5.98,0.003,-0.075
5.984,-0.007,-0.087
5.988,-0.022,-0.092
5.992,-0.025,-0.087
5.996,-0.018,-0.08
6,-0.02,-0.075
6.004,-0.015,-0.062
6.008,-0.007,-0.065
6.012,-0.003,-0.058
6.016,-0.018,-0.077
6.02,-0.022,-0.075
6.024,-0.028,-0.077
6.028,-0.03,-0.08
6.032,-0.028,-0.077
6.036,-0.013,-0.062
6.04,0,-0.055
6.044,0,-0.058
6.048,-0.007,-0.077
6.052,-0.015,-0.075
6.056,-0.015,-0.075
6.06,-0.022,-0.08
6.064,-0.028,-0.068
6.068,-0.007,-0.058
6.072,0,-0.052
6.076,0.005,-0.043
6.08,0,-0.075
6.084,-0.02,-0.08
6.088,-0.015,-0.077
6.092,-0.02,-0.07
6.096,-0.015,-0.077
6.1,-0.015,-0.055
6.104,-0.005,-0.045
6.108,0,-0.05
6.112,0,-0.055
6.116,-0.015,-0.072
6.12,-0.025,-0.07
6.124,-0.037,-0.065
6.128,-0.02,-0.052
6.132,-0.025,-0.065
6.136,-0.015,-0.037
6.14,-0.013,-0.037
6.144,-0.003,-0.05
6.148,-0.003,-0.06
6.152,-0.015,-0.072
6.156,-0.02,-0.072
6.16,-0.018,-0.062
6.164,-0.028,-0.06
6.168,-0.01,-0.05
6.172,0,-0.043
6.176,0.007,-0.045
6.18,0.01,-0.058
6.184,0.003,-0.058
6.188,-0.013,-0.08
6.192,-0.022,-0.062
6.196,-0.01,-0.062
6.2,-0.01,-0.035
6.204,-0.003,-0.043
6.208,0.013,-0.043
6.212,0.003,-0.045
6.216,0.007,-0.058
6.22,0,-0.058
6.224,-0.02,-0.055
6.228,-0.013,-0.05
6.232,-0.025,-0.04
6.236,-0.015,-0.03
6.24,0.007,-0.04
6.244,0.007,-0.04
6.248,0.003,-0.048
6.252,-0.013,-0.052
6.256,-0.015,-0.065
6.26,-0.022,-0.058
6.264,-0.02,-0.048
6.268,-0.007,-0.037
6.272,0.003,-0.033
6.276,0,-0.035
6.28,0.015,-0.04
6.284,0.005,-0.055
6.288,-0.01,-0.07
6.292,-0.013,-0.062
6.296,-0.022,-0.052
6.3,-0.013,-0.035
6.304,0.005,-0.03
6.308,0.003,-0.022
6.312,0.013,-0.045
6.316,-0.005,-0.05
6.32,-0.003,-0.055
6.324,-0.018,-0.058
6.328,-0.025,-0.045
6.332,-0.022,-0.033
6.336,-0.01,-0.028
6.34,0.003,-0.028
6.344,0.005,-0.028
6.348,0,-0.043
6.352,0,-0.048
6.356,-0.013,-0.048
6.36,-0.013,-0.048
6.364,-0.01,-0.033
6.368,-0.005,-0.022
6.372,0,-0.015
6.376,0.005,-0.02
6.38,0,-0.03
6.384,-0.005,-0.045
6.388,-0.015,-0.055
6.392,-0.01,-0.052
6.396,-0.013,-0.05
6.4,-0.007,-0.03
6.404,0.005,-0.025
6.408,0.015,-0.03
6.412,0.028,-0.025
6.416,0.003,-0.043
6.42,0.007,-0.048
6.424,-0.007,-0.04
6.428,-0.015,-0.035
6.432,-0.018,-0.033
6.436,-0.005,-0.025
6.44,0.005,-0.022
6.444,0.007,-0.02
6.448,0.003,-0.033
6.452,-0.01,-0.05
6.456,-0.02,-0.048
6.46,-0.02,-0.033
6.464,-0.022,-0.03
6.468,-0.005,-0.025
6.472,0.013,-0.015
6.476,0.015,-0.022
6.48,-0.005,-0.022
6.484,-0.003,-0.035
6.488,-0.01,-0.033
6.492,-0.013,-0.043
6.496,-0.015,-0.035
6.5,-0.005,-0.025
6.504,0,-0.02
6.508,0.015,-0.02
6.512,0.018,-0.015
6.516,0,-0.04
6.52,-0.007,-0.048
6.524,-0.01,-0.037
6.528,-0.013,-0.05
6.532,-0.015,-0.033
6.536,-0.003,-0.013
6.54,0.01,-0.005
6.544,0.018,-0.015
6.548,0.005,-0.035
6.552,-0.005,-0.035
6.556,-0.013,-0.052
6.56,-0.015,-0.037
6.564,-0.007,-0.033
6.568,-0.007,-0.018
6.572,0.007,-0.005
6.576,0.022,-0.02
6.58,0.018,-0.015
6.584,0.013,-0.04
6.588,-0.007,-0.045
6.592,-0.005,-0.04
6.596,-0.01,-0.035
6.6,0.003,-0.028
6.604,0.007,-0.013
6.608,0.015,-0.025
6.612,0.015,-0.022
6.616,0.018,-0.04
6.62,0.007,-0.04
6.624,-0.01,-0.033
6.628,-0.013,-0.025
6.632,0,-0.013
6.636,0.007,-0.007
6.64,0.015,0.01
6.644,0.028,-0.003
6.648,0.022,-0.013
6.652,0.015,-0.018
6.656,-0.003,-0.01
6.66,-0.015,-0.013
6.664,-0.01,0.005
6.668,0,0.01
6.672,0.028,0.02
6.676,0.048,0.05
6.68,0.083,0.135
6.684,0.138,0.27
6.688,0.212,0.42
6.692,0.3,0.578
6.696,0.383,0.655
6.7,0.42,0.64
6.704,0.398,0.583
6.708,0.335,0.535
6.712,0.245,0.51
6.716,0.138,0.497
6.72,0.02,0.482
6.724,-0.095,0.46
6.728,-0.19,0.443
6.732,-0.263,0.412
6.736,-0.31,0.367
6.74,-0.312,0.3
6.744,-0.3,0.25
6.748,-0.263,0.185
6.752,-0.237,0.13
6.756,-0.225,0.087
6.76,-0.223,0.065
6.764,-0.21,0.058
6.768,-0.205,0.035
6.772,-0.188,0.013
6.776,-0.155,-0.02
6.78,-0.142,-0.043
6.784,-0.117,-0.075
6.788,-0.107,-0.083
6.792,-0.092,-0.08
6.796,-0.075,-0.08
6.8,-0.072,-0.08
6.804,-0.058,-0.085
6.808,-0.05,-0.083
6.812,-0.043,-0.09
6.816,-0.052,-0.113
6.82,-0.05,-0.105
6.824,-0.065,-0.11
6.828,-0.06,-0.102
6.832,-0.05,-0.098
6.836,-0.04,-0.09
6.84,-0.03,-0.087
6.844,-0.037,-0.095
6.848,-0.03,-0.113
6.852,-0.04,-0.12
6.856,-0.055,-0.125
6.86,-0.05,-0.133
6.864,-0.045,-0.12
6.868,-0.048,-0.122
6.872,-0.04,-0.117
6.876,-0.02,-0.125
6.88,-0.028,-0.128
6.884,-0.037,-0.147
6.888,-0.048,-0.16
6.892,-0.037,-0.165
6.896,-0.035,-0.155
6.9,-0.02,-0.158
6.904,-0.01,-0.16
6.908,-0.003,-0.165
6.912,0,-0.16
6.916,0,-0.193
6.92,-0.022,-0.198
6.924,-0.015,-0.203
6.928,-0.025,-0.21
6.932,-0.005,-0.225
6.936,0,-0.21
6.94,0.005,-0.228
6.944,0.013,-0.233
6.948,0.035,-0.242
6.952,0.028,-0.265
6.956,0.02,-0.265
6.96,0.028,-0.275
6.964,0.03,-0.273
6.968,0.035,-0.268
6.972,0.062,-0.26
6.976,0.072,-0.28
6.98,0.085,-0.282
6.984,0.08,-0.305
6.988,0.087,-0.305
6.992,0.083,-0.31
6.996,0.102,-0.312
7,0.12,-0.307
7.004,0.145,-0.285
7.008,0.17,-0.28
7.012,0.18,-0.31
7.016,0.177,-0.31
7.02,0.18,-0.312
7.024,0.18,-0.29
7.028,0.198,-0.302
7.032,0.205,-0.273
7.036,0.233,-0.265
7.04,0.265,-0.25
7.044,0.273,-0.242
7.048,0.282,-0.237
7.052,0.282,-0.228
7.056,0.285,-0.233
7.06,0.29,-0.237
7.064,0.297,-0.21
7.068,0.307,-0.195
7.072,0.33,-0.172
7.076,0.325,-0.17
7.08,0.333,-0.163
7.084,0.325,-0.16
7.088,0.307,-0.168
7.092,0.275,-0.152
7.096,0.275,-0.13
7.1,0.255,-0.117
7.104,0.25,-0.098
7.108,0.245,-0.095
7.112,0.235,-0.087
7.116,0.215,-0.095
7.12,0.198,-0.098
7.124,0.177,-0.098
7.128,0.155,-0.09
7.132,0.145,-0.068
7.136,0.128,-0.048
7.14,0.125,-0.06
7.144,0.115,-0.048
7.148,0.098,-0.055
7.152,0.09,-0.058
7.156,0.058,-0.052
7.16,0.052,-0.05
7.164,0.043,-0.04
7.168,0.037,-0.022
7.172,0.05,-0.02
7.176,0.055,-0.02
7.18,0.048,-0.022
7.184,0.03,-0.033
7.188,0.01,-0.033
7.192,0,-0.03
7.196,0.005,-0.028
7.2,0.015,-0.003
7.204,0.013,-0.005
7.208,0.025,0.005
7.212,0.025,-0.005
7.216,0.013,-0.013
7.22,0.005,-0.022
7.224,-0.005,-0.03
7.228,0,-0.015
7.232,-0.013,-0.005
7.236,0.005,0.013
7.24,0.015,0.018
7.244,0.025,0.022
7.248,0.005,-0.003
7.252,0.005,-0.01
7.256,-0.015,0
7.26,-0.015,0.005
7.264,-0.022,0.018
7.268,-0.013,0.022
7.272,0,0.025
7.276,0.005,0.035
7.28,0,0.018
7.284,-0.01,0.015
7.288,-0.015,0.005
7.292,-0.035,0.01
7.296,-0.033,0.018
7.3,-0.03,0.028
7.304,-0.007,0.028
7.308,0,0.03
7.312,-0.007,0.033
7.316,-0.007,0.015
7.32,-0.013,0.003
7.324,-0.022,0.013
7.328,-0.018,0
7.332,-0.02,0.022
7.336,-0.007,0.035
7.34,0,0.037
7.344,-0.003,0.025
7.348,0,0.02
7.352,-0.015,0.007
7.356,-0.028,0.015
7.36,-0.03,0.015
7.364,-0.028,0.043
7.368,-0.025,0.04
7.372,-0.02,0.052
7.376,-0.007,0.045
7.38,-0.005,0.048
7.384,-0.005,0.033
7.388,-0.01,0.02
7.392,-0.033,0.02
7.396,-0.03,0.025
7.4,-0.022,0.035
7.404,-0.015,0.045
7.408,-0.01,0.043
7.412,-0.005,0.035
7.416,-0.018,0.03
7.42,-0.018,0.015
7.424,-0.022,0.018
7.428,-0.025,0.018
7.432,-0.025,0.04
7.436,-0.013,0.048
7.44,0,0.058
7.444,-0.007,0.037
7.448,-0.003,0.043
7.452,-0.03,0.033
7.456,-0.033,0.04
7.46,-0.048,0.037
7.464,-0.052,0.052
7.468,-0.04,0.062
7.472,-0.035,0.08
7.476,-0.033,0.072
7.48,-0.035,0.058
7.484,-0.035,0.05
7.488,-0.045,0.045
7.492,-0.04,0.045
7.496,-0.037,0.05
7.5,-0.025,0.055
7.504,-0.015,0.065
7.508,-0.015,0.055
7.512,-0.003,0.048
7.516,-0.022,0.03
7.52,-0.028,0.037
7.524,-0.025,0.033
7.528,-0.037,0.03
7.532,-0.02,0.03
7.536,-0.02,0.045
7.54,-0.003,0.058
7.544,-0.003,0.05
7.548,-0.007,0.04
7.552,-0.01,0.028
7.556,-0.04,0.03
7.56,-0.033,0.035
7.564,-0.03,0.045
7.568,-0.022,0.068
7.572,-0.01,0.068
7.576,-0.005,0.075
7.58,-0.01,0.05
7.584,-0.022,0.045
7.588,-0.035,0.033
7.592,-0.037,0.048
7.596,-0.03,0.045
7.6,-0.025,0.058
7.604,-0.015,0.06
7.608,-0.003,0.062
7.612,-0.018,0.06
7.616,-0.02,0.055
7.62,-0.025,0.037
7.624,-0.037,0.043
7.628,-0.033,0.048
7.632,-0.037,0.062
7.636,-0.025,0.062
7.64,-0.005,0.068
7.644,0.003,0.065
7.648,-0.007,0.062
7.652,-0.025,0.055
7.656,-0.025,0.052
7.66,-0.035,0.065
7.664,-0.025,0.068
7.668,-0.015,0.068
7.672,-0.01,0.085
7.676,0.003,0.077
7.68,-0.01,0.083
7.684,-0.022,0.06
7.688,-0.02,0.052
7.692,-0.033,0.06
7.696,-0.037,0.068
7.7,-0.025,0.08
7.704,-0.018,0.095
7.708,0.005,0.072
7.712,-0.01,0.08
7.716,-0.022,0.07
7.72,-0.025,0.062
7.724,-0.033,0.07
7.728,-0.048,0.068
7.732,-0.037,0.077
7.736,-0.02,0.09
7.74,-0.013,0.085
7.744,-0.003,0.08
7.748,-0.007,0.07
7.752,-0.015,0.068
7.756,-0.025,0.06
7.76,-0.025,0.058
7.764,-0.037,0.065
7.768,-0.02,0.085
7.772,-0.01,0.102
7.776,-0.003,0.083
7.78,0,0.087
7.784,-0.003,0.07
7.788,-0.018,0.077
7.792,-0.02,0.072
7.796,-0.02,0.075
7.8,-0.018,0.098
7.804,-0.003,0.1
7.808,0.003,0.092
7.812,-0.003,0.095
7.816,-0.005,0.083
7.82,-0.022,0.09
7.824,-0.02,0.07
7.828,-0.022,0.08
7.832,-0.022,0.087
7.836,-0.015,0.107
7.84,0.003,0.087
7.844,0.007,0.095
7.848,0.01,0.077
7.852,0,0.077
7.856,-0.02,0.077
7.86,-0.018,0.077
7.864,-0.022,0.09
7.868,-0.015,0.098
7.872,0,0.102
7.876,0.005,0.1
7.88,-0.003,0.09
7.884,-0.007,0.092
7.888,-0.028,0.08
7.892,-0.028,0.083
7.896,-0.035,0.098
7.9,-0.025,0.113
7.904,-0.01,0.115
7.908,0,0.117
7.912,0,0.117
7.916,-0.003,0.092
7.92,-0.018,0.09
7.924,-0.033,0.083
7.928,-0.045,0.087
7.932,-0.02,0.113
7.936,-0.01,0.107
7.94,0,0.105
7.944,0,0.11
7.948,-0.005,0.1
7.952,-0.007,0.087
7.956,-0.022,0.095
7.96,-0.018,0.095
7.964,-0.025,0.102
7.968,-0.013,0.107
7.972,-0.003,0.117
7.976,0.005,0.12
7.98,0.007,0.102
7.984,-0.01,0.102
7.988,-0.015,0.095
7.992,-0.022,0.1
7.996,-0.033,0.1
8,-0.025,0.113
8.004,-0.007,0.107
8.008,0,0.128
8.012,0.005,0.12
8.016,-0.003,0.1
8.02,-0.013,0.095
8.024,-0.022,0.102
8.028,-0.028,0.102
8.032,-0.015,0.12
8.036,-0.01,0.12
8.04,-0.005,0.113
8.044,0,0.113
8.048,0,0.12
8.052,-0.007,0.095
8.056,-0.02,0.092
8.06,-0.022,0.095
8.064,-0.02,0.102
8.068,-0.007,0.12
8.072,0.005,0.128
8.076,0.007,0.125
8.08,-0.005,0.113
8.084,-0.005,0.092
8.088,-0.018,0.092
8.092,-0.028,0.102
8.096,-0.025,0.1
8.1,-0.022,0.11
8.104,0,0.12
8.108,-0.005,0.128
8.112,-0.003,0.117
8.116,0,0.11
8.12,-0.007,0.09
8.124,-0.007,0.107
8.128,-0.018,0.113
8.132,-0.018,0.122
8.136,-0.018,0.122
8.14,0,0.13
8.144,-0.003,0.128
8.148,0,0.105
8.152,-0.003,0.095
8.156,-0.007,0.102
8.16,-0.015,0.107
8.164,-0.013,0.105
8.168,-0.005,0.115
8.172,0.013,0.12
8.176,0.015,0.117
8.18,0.018,0.122
8.184,0.007,0.095
8.188,-0.003,0.098
8.192,-0.01,0.105
8.196,-0.013,0.107
8.2,-0.007,0.115
8.204,0,0.13
8.208,0.013,0.128
8.212,0.015,0.115
8.216,0.005,0.12
8.22,0,0.12
8.224,-0.03,0.122
8.228,-0.02,0.117
8.232,-0.015,0.13
8.236,-0.018,0.135
8.24,0.013,0.142
8.244,0.018,0.145
8.248,0.025,0.138
8.252,0.033,0.172
8.256,0.06,0.25
8.26,0.087,0.355
8.264,0.133,0.49
8.268,0.205,0.613
8.272,0.285,0.72
8.276,0.345,0.797
8.28,0.383,0.79
8.284,0.362,0.752
8.288,0.312,0.7
8.292,0.237,0.662
8.296,0.142,0.645
8.3,0.043,0.645
8.304,-0.048,0.635
8.308,-0.115,0.65
8.312,-0.188,0.63
8.316,-0.255,0.605
8.32,-0.31,0.585
8.324,-0.355,0.557
8.328,-0.388,0.527
8.332,-0.405,0.492
8.336,-0.388,0.438
8.34,-0.35,0.367
8.344,-0.297,0.318
8.348,-0.253,0.25
8.352,-0.225,0.193
8.356,-0.217,0.15
8.36,-0.207,0.122
8.364,-0.203,0.11
8.368,-0.182,0.098
8.372,-0.14,0.092
8.376,-0.115,0.087
8.38,-0.085,0.055
8.384,-0.07,0.04
8.388,-0.072,0.03
8.392,-0.083,0.022
8.396,-0.072,0.035
8.4,-0.065,0.037
8.404,-0.062,0.043
8.408,-0.058,0.04
8.412,-0.04,0.028
8.416,-0.055,0.022
8.42,-0.06,0.018
8.424,-0.07,0.015
8.428,-0.07,0.025
8.432,-0.065,0.018
8.436,-0.07,0.03
8.44,-0.055,0.028
8.444,-0.045,0.028
8.448,-0.052,0.01
8.452,-0.055,0.015
8.456,-0.072,-0.018
8.46,-0.065,-0.02
8.464,-0.072,-0.018
8.468,-0.065,0
8.472,-0.04,0.007
8.476,-0.04,0
8.48,-0.035,-0.015
8.484,-0.043,-0.025
8.488,-0.052,-0.04
8.492,-0.055,-0.045
8.496,-0.052,-0.06
8.5,-0.045,-0.037
8.504,-0.028,-0.045
8.508,-0.025,-0.058
8.512,-0.018,-0.068
8.516,-0.013,-0.085
8.52,-0.022,-0.095
8.524,-0.018,-0.107
8.528,-0.025,-0.098
8.532,-0.013,-0.102
8.536,0,-0.095
8.54,0.013,-0.117
8.544,0.022,-0.105
8.548,0.018,-0.13
8.552,0.022,-0.147
8.556,0.007,-0.152
8.56,0.018,-0.16
8.564,0.04,-0.168
8.568,0.045,-0.155
8.572,0.075,-0.16
8.576,0.077,-0.152
8.58,0.092,-0.168
8.584,0.087,-0.17
8.588,0.092,-0.193
8.592,0.1,-0.182
8.596,0.105,-0.18
8.6,0.125,-0.17
8.604,0.16,-0.158
8.608,0.18,-0.15
8.612,0.198,-0.163
8.616,0.21,-0.165
8.62,0.223,-0.17
8.624,0.225,-0.17
8.628,0.235,-0.14
8.632,0.25,-0.115
8.636,0.27,-0.102
8.64,0.3,-0.102
8.644,0.305,-0.1
8.648,0.305,-0.09
8.652,0.312,-0.092
8.656,0.305,-0.087
8.66,0.32,-0.07
8.664,0.305,-0.058
8.668,0.312,-0.03
8.672,0.318,-0.03
8.676,0.33,-0.018
8.68,0.307,-0.02
8.684,0.3,-0.005
8.688,0.268,-0.015
8.692,0.245,0
8.696,0.235,0
8.7,0.215,0.028
8.704,0.217,0.05
8.708,0.203,0.043
8.712,0.2,0.045
8.716,0.165,0.043
8.72,0.14,0.037
8.724,0.117,0.033
8.728,0.107,0.045
8.732,0.092,0.065
8.736,0.095,0.07
8.74,0.1,0.08
8.744,0.085,0.075
8.748,0.068,0.068
8.752,0.052,0.075
8.756,0.025,0.065
8.76,0.028,0.083
8.764,0.018,0.1
8.768,0.01,0.098
8.772,0.028,0.107
8.776,0.037,0.105
8.78,0.018,0.1
8.784,0.01,0.09
8.788,0.003,0.09
8.792,-0.003,0.105
8.796,-0.01,0.105
8.8,-0.003,0.12
8.804,0.007,0.122
8.808,0.02,0.133
8.812,0.015,0.133
8.816,0.015,0.11
8.82,0.015,0.105
8.824,-0.003,0.107
8.828,-0.005,0.107
8.832,0,0.122
8.836,0.003,0.122
8.84,0.015,0.15
8.844,0.013,0.147
8.848,0.015,0.133
8.852,0,0.113
8.856,-0.015,0.117
8.86,-0.013,0.125
8.864,-0.01,0.135
8.868,-0.003,0.155
8.872,0.003,0.14
8.876,0.007,0.152
8.88,0.01,0.13
8.884,-0.005,0.113
8.888,-0.015,0.117
8.892,-0.022,0.125
8.896,-0.015,0.128
8.9,-0.007,0.135
8.904,-0.013,0.147
8.908,0.007,0.147
8.912,0.007,0.147
8.916,0.01,0.13
8.92,-0.003,0.133
8.924,-0.013,0.122
8.928,-0.02,0.125
8.932,-0.022,0.13
8.936,-0.013,0.152
8.94,-0.005,0.158
8.944,-0.007,0.152
8.948,0,0.135
8.952,-0.005,0.115
8.956,-0.02,0.128
8.96,-0.018,0.128
8.964,-0.02,0.142
8.968,-0.01,0.15
8.972,0.003,0.152
8.976,0.005,0.145
8.98,-0.013,0.142
8.984,0,0.138
8.988,-0.015,0.133
8.992,-0.03,0.128
8.996,-0.02,0.15
9,-0.015,0.152
9.004,-0.018,0.158
9.008,-0.005,0.163
9.012,-0.018,0.165
9.016,-0.025,0.145
9.02,-0.033,0.138
9.024,-0.04,0.135
9.028,-0.048,0.142
9.032,-0.043,0.15
9.036,-0.04,0.168
9.04,-0.03,0.172
9.044,-0.037,0.177
9.048,-0.03,0.152
9.052,-0.028,0.152
9.056,-0.033,0.135
9.06,-0.033,0.14
9.064,-0.035,0.142
9.068,-0.015,0.16
9.072,-0.025,0.152
9.076,-0.003,0.155
9.08,-0.01,0.14
9.084,-0.005,0.135
9.088,-0.02,0.128
9.092,-0.025,0.128
9.096,-0.033,0.14
9.1,-0.025,0.145
9.104,-0.013,0.155
9.108,-0.005,0.15
9.112,-0.007,0.145
9.116,-0.018,0.135
9.12,-0.02,0.12
9.124,-0.025,0.117
9.128,-0.025,0.117
9.132,-0.018,0.14
9.136,-0.018,0.15
9.14,-0.005,0.163
9.144,0,0.147
9.148,-0.003,0.133
9.152,-0.015,0.128
9.156,-0.025,0.12
9.16,-0.033,0.128
9.164,-0.025,0.142
9.168,-0.025,0.158
9.172,0.003,0.158
9.176,-0.007,0.163
9.18,0,0.138
9.184,-0.005,0.128
9.188,-0.018,0.117
9.192,-0.03,0.122
9.196,-0.018,0.128
9.2,-0.018,0.158
9.204,-0.003,0.152
9.208,0.01,0.152
9.212,0.003,0.138
9.216,-0.005,0.135
9.22,-0.022,0.13
9.224,-0.02,0.125
9.228,-0.013,0.133
9.232,-0.035,0.142
9.236,-0.015,0.147
9.24,0,0.155
9.244,0.007,0.152
9.248,0.003,0.152
9.252,-0.013,0.14
9.256,-0.01,0.14
9.26,-0.015,0.135
9.264,-0.018,0.138
9.268,-0.01,0.152
9.272,-0.003,0.165
9.276,0.003,0.165
9.28,0,0.152
9.284,-0.01,0.135
9.288,-0.015,0.14
9.292,-0.033,0.145
9.296,-0.02,0.142
9.3,-0.025,0.165
9.304,-0.005,0.172
9.308,0,0.155
9.312,0.013,0.158
9.316,0,0.142
9.32,-0.01,0.14
9.324,-0.02,0.135
9.328,-0.033,0.158
9.332,-0.02,0.15
9.336,-0.013,0.172
9.34,0.007,0.168
9.344,0.007,0.163
9.348,0.015,0.155
9.352,-0.007,0.138
9.356,-0.013,0.145
9.36,-0.013,0.145
9.364,-0.015,0.158
9.368,-0.007,0.16
9.372,0,0.172
9.376,0.015,0.172
9.38,0.005,0.17
9.384,0,0.15
9.388,-0.003,0.14
9.392,-0.013,0.152
9.396,-0.018,0.158
9.4,-0.005,0.168
9.404,-0.005,0.182
9.408,0.01,0.182
9.412,0.013,0.165
9.416,0.003,0.163
9.42,-0.01,0.145
9.424,-0.018,0.15
9.428,-0.01,0.147
9.432,-0.01,0.163
9.436,-0.007,0.182
9.44,0,0.17
9.444,0.015,0.165
9.448,0.015,0.155
9.452,0.003,0.145
9.456,-0.005,0.158
9.46,-0.02,0.142
9.464,-0.007,0.16
9.468,-0.01,0.168
9.472,0.013,0.172
9.476,0.005,0.165
9.48,0.018,0.172
9.484,0.007,0.16
9.488,-0.005,0.142
9.492,-0.022,0.15
9.496,-0.01,0.158
9.5,-0.013,0.175
9.504,0.003,0.175
9.508,0.005,0.182
9.512,0.018,0.175
9.516,0.007,0.16
9.52,-0.003,0.155
9.524,-0.015,0.158
9.528,-0.007,0.16
9.532,-0.013,0.175
9.536,-0.005,0.172
9.54,0.007,0.177
9.544,0.005,0.177
9.548,0.003,0.152
9.552,-0.003,0.15
9.556,-0.005,0.147
9.56,-0.003,0.16
9.564,-0.015,0.155
9.568,0.003,0.165
9.572,0.018,0.17
9.576,0.013,0.177
9.58,0.005,0.18
9.584,0.005,0.152
9.588,-0.007,0.152
9.592,-0.013,0.145
9.596,-0.005,0.152
9.6,-0.007,0.175
9.604,0.003,0.182
9.608,0.013,0.182
9.612,0.018,0.182
9.616,0.01,0.172
9.62,0.003,0.152
9.624,-0.01,0.158
9.628,-0.01,0.155
9.632,-0.013,0.172
9.636,0,0.188
9.64,0.015,0.18
9.644,0.015,0.18
9.648,0.015,0.17
9.652,-0.003,0.15
9.656,0,0.147
9.66,-0.007,0.147
9.664,-0.007,0.175
9.668,-0.007,0.168
9.672,0.007,0.188
9.676,0.015,0.177
9.68,0.01,0.172
9.684,0.003,0.165
9.688,0,0.152
9.692,-0.01,0.155
9.696,-0.022,0.163
9.7,-0.015,0.182
9.704,0,0.18
9.708,0.025,0.185
9.712,0.018,0.18
9.716,0.01,0.168
9.72,0.003,0.168
9.724,-0.007,0.172
9.728,-0.003,0.172
9.732,-0.003,0.172
9.736,0.01,0.18
9.74,0.013,0.193
9.744,0.02,0.188
9.748,0.018,0.175
9.752,0.003,0.172
9.756,-0.003,0.155
9.76,-0.013,0.163
9.764,-0.003,0.182
9.768,0.003,0.193
9.772,0.022,0.185
9.776,0.022,0.19
9.78,0.02,0.177
9.784,0.005,0.185
9.788,-0.005,0.175
9.792,-0.003,0.158
9.796,0,0.163
9.8,0.005,0.168
9.804,0.033,0.203
9.808,0.048,0.242
9.812,0.085,0.307
9.816,0.11,0.407
9.82,0.14,0.53
9.824,0.22,0.695
9.828,0.297,0.805
9.832,0.37,0.848
9.836,0.388,0.843
9.84,0.355,0.802
9.844,0.27,0.75
9.848,0.165,0.715
9.852,0.033,0.7
9.856,-0.092,0.698
9.86,-0.18,0.703
9.864,-0.27,0.695
9.868,-0.338,0.69
9.872,-0.385,0.67
9.876,-0.425,0.635
9.88,-0.465,0.568
9.884,-0.458,0.49
9.888,-0.438,0.422
9.892,-0.395,0.383
9.896,-0.338,0.335
9.9,-0.295,0.315
9.904,-0.247,0.285
9.908,-0.215,0.255
9.912,-0.203,0.237
9.916,-0.212,0.215
9.92,-0.225,0.177
9.924,-0.215,0.158
9.928,-0.185,0.133
9.932,-0.125,0.128
9.936,-0.083,0.122
9.94,-0.037,0.115
9.944,-0.028,0.107
9.948,-0.033,0.09
9.952,-0.03,0.087
9.956,-0.052,0.08
9.96,-0.055,0.075
9.964,-0.055,0.07
9.968,-0.037,0.08
9.972,-0.028,0.08
9.976,-0.01,0.095
9.98,-0.007,0.07
9.984,-0.02,0.068
9.988,-0.028,0.058
9.992,-0.018,0.043
9.996,-0.03,0.058
10,-0.02,0.062
10.004,-0.02,0.065
10.008,0,0.052
10.012,0,0.058
10.016,-0.003,0.033
10.02,-0.015,0.028
10.024,-0.033,0.035
10.028,-0.028,0.025
10.032,-0.015,0.037
10.036,0,0.033
10.04,0.007,0.037
10.044,-0.003,0.022
10.048,0.005,0.005
10.052,0.007,-0.007
10.056,0,-0.033
10.06,0,-0.028
10.064,-0.005,-0.025
10.068,0.01,-0.018
10.072,0.025,-0.022
10.076,0.04,-0.04
10.08,0.048,-0.065
10.084,0.05,-0.077
10.088,0.043,-0.095
10.092,0.05,-0.087
10.096,0.052,-0.102
10.1,0.072,-0.08
10.104,0.087,-0.087
10.108,0.092,-0.1
10.112,0.113,-0.113
10.116,0.115,-0.115
10.12,0.11,-0.138
10.124,0.105,-0.142
10.128,0.117,-0.13
10.132,0.14,-0.117
10.136,0.165,-0.107
10.14,0.185,-0.115
10.144,0.198,-0.115
10.148,0.207,-0.13
10.152,0.217,-0.128
10.156,0.217,-0.13
10.16,0.212,-0.122
10.164,0.215,-0.105
10.168,0.247,-0.105
10.172,0.287,-0.092
10.176,0.307,-0.087
10.18,0.328,-0.08
10.184,0.323,-0.087
10.188,0.335,-0.083
10.192,0.338,-0.08
10.196,0.357,-0.065
10.2,0.355,-0.04
10.204,0.367,-0.022
10.208,0.378,-0.003
10.212,0.372,-0.018
10.216,0.37,-0.015
10.22,0.355,-0.022
10.224,0.33,-0.003
10.228,0.33,0.01
10.232,0.328,0.03
10.236,0.302,0.068
10.24,0.318,0.048
10.244,0.305,0.058
10.248,0.295,0.058
10.252,0.263,0.045
10.256,0.225,0.055
10.26,0.215,0.055
10.264,0.18,0.062
10.268,0.182,0.085
10.272,0.185,0.092
10.276,0.17,0.092
10.28,0.17,0.092
10.284,0.15,0.087
10.288,0.13,0.083
10.292,0.12,0.083
10.296,0.098,0.092
10.3,0.09,0.11
10.304,0.083,0.115
10.308,0.098,0.117
10.312,0.1,0.115
10.316,0.095,0.113
10.32,0.083,0.098
10.324,0.068,0.092
10.328,0.055,0.105
10.332,0.055,0.115
10.336,0.058,0.128
10.34,0.068,0.14
10.344,0.07,0.138
10.348,0.065,0.133
10.352,0.062,0.115
10.356,0.055,0.128
10.36,0.043,0.12
10.364,0.048,0.128
10.368,0.04,0.133
10.372,0.052,0.138
10.376,0.058,0.155
10.38,0.07,0.145
10.384,0.055,0.138
10.388,0.045,0.138
10.392,0.035,0.125
10.396,0.025,0.135
10.4,0.035,0.133
10.404,0.045,0.158
10.408,0.048,0.163
10.412,0.05,0.158
10.416,0.043,0.158
10.42,0.037,0.133
10.424,0.022,0.14
10.428,0.02,0.135
10.432,0.018,0.158
10.436,0.03,0.16
10.44,0.052,0.168
10.444,0.06,0.165
10.448,0.06,0.155
10.452,0.052,0.152
10.456,0.05,0.145
10.46,0.028,0.14
10.464,0.048,0.147
10.468,0.043,0.145
10.472,0.05,0.163
10.476,0.075,0.172
10.48,0.083,0.155
10.484,0.077,0.135
10.488,0.068,0.14
10.492,0.06,0.142
10.496,0.05,0.145
10.5,0.07,0.142
10.504,0.077,0.147
10.508,0.09,0.15
10.512,0.092,0.17
10.516,0.09,0.155
10.52,0.077,0.155
10.524,0.065,0.15
10.528,0.06,0.147
10.532,0.055,0.16
10.536,0.06,0.158
10.54,0.075,0.175
10.544,0.075,0.175
10.548,0.087,0.16
10.552,0.083,0.147
10.556,0.062,0.15
10.56,0.05,0.155
10.564,0.055,0.158
10.568,0.048,0.175
10.572,0.058,0.182
10.576,0.06,0.193
10.58,0.058,0.185
10.584,0.048,0.188
10.588,0.048,0.155
10.592,0.022,0.16
10.596,0.028,0.17
10.6,0.022,0.172
10.604,0.035,0.172
10.608,0.052,0.177
10.612,0.075,0.17
10.616,0.087,0.163
10.62,0.083,0.163
10.624,0.075,0.142
10.628,0.07,0.135
10.632,0.08,0.135
10.636,0.075,0.155
10.64,0.1,0.16
10.644,0.095,0.163
10.648,0.125,0.16
10.652,0.1,0.138
10.656,0.095,0.135
10.66,0.098,0.128
10.664,0.077,0.135
10.668,0.087,0.145
10.672,0.1,0.155
10.676,0.107,0.158
10.68,0.117,0.16
10.684,0.1,0.15
10.688,0.095,0.135
10.692,0.087,0.128
10.696,0.083,0.138
10.7,0.087,0.145
10.704,0.098,0.155
10.708,0.117,0.155
10.712,0.117,0.155
10.716,0.117,0.145
10.72,0.102,0.14
10.724,0.1,0.128
10.728,0.1,0.135
10.732,0.098,0.147
10.736,0.1,0.163
10.74,0.107,0.158
10.744,0.117,0.177
10.748,0.113,0.168
10.752,0.107,0.147
10.756,0.098,0.15
10.76,0.083,0.152
10.764,0.07,0.142
10.768,0.06,0.163
10.772,0.085,0.172
10.776,0.105,0.17
10.78,0.13,0.17
10.784,0.145,0.145
10.788,0.133,0.142
10.792,0.12,0.147
10.796,0.105,0.145
10.8,0.115,0.152
10.804,0.133,0.158
10.808,0.147,0.16
10.812,0.138,0.15
10.816,0.145,0.15
10.82,0.145,0.128
10.824,0.133,0.13
10.828,0.115,0.145
10.832,0.125,0.152
10.836,0.13,0.158
10.84,0.145,0.168
10.844,0.152,0.17
10.848,0.152,0.168
10.852,0.15,0.15
10.856,0.135,0.152
10.86,0.125,0.155
10.864,0.135,0.152
10.868,0.145,0.16
10.872,0.152,0.175
10.876,0.155,0.18
10.88,0.16,0.172
10.884,0.163,0.158
10.888,0.158,0.152
10.892,0.135,0.15
10.896,0.135,0.16
10.9,0.142,0.163
10.904,0.147,0.185
10.908,0.165,0.18
10.912,0.17,0.177
10.916,0.17,0.163
10.92,0.15,0.152
10.924,0.145,0.15
10.928,0.135,0.15
10.932,0.135,0.17
10.936,0.152,0.182
10.94,0.155,0.182
10.944,0.16,0.177
10.948,0.16,0.185
10.952,0.145,0.172
10.956,0.135,0.16
10.96,0.14,0.175
10.964,0.133,0.17
10.968,0.142,0.18
10.972,0.158,0.177
10.976,0.16,0.18
10.98,0.158,0.18
10.984,0.147,0.185
10.988,0.152,0.158
10.992,0.152,0.15
10.996,0.16,0.16
11,0.158,0.177
11.004,0.165,0.177
11.008,0.175,0.17
11.012,0.18,0.182
11.016,0.185,0.165
11.02,0.172,0.147
11.024,0.168,0.147
11.028,0.155,0.147
11.032,0.158,0.158
11.036,0.15,0.175
11.04,0.165,0.17
11.044,0.177,0.16
11.048,0.188,0.165
11.052,0.19,0.155
11.056,0.177,0.147
11.06,0.168,0.158
11.064,0.188,0.158
11.068,0.19,0.17
11.072,0.205,0.165
11.076,0.198,0.172
11.08,0.21,0.18
11.084,0.207,0.163
11.088,0.205,0.155
11.092,0.195,0.158
11.096,0.19,0.163
11.1,0.193,0.17
11.104,0.203,0.18
11.108,0.207,0.185
11.112,0.228,0.18
11.116,0.215,0.175
11.12,0.212,0.16
11.124,0.21,0.158
11.128,0.207,0.155
11.132,0.205,0.16
11.136,0.22,0.175
11.14,0.233,0.182
11.144,0.235,0.19
11.148,0.237,0.185
11.152,0.225,0.172
11.156,0.22,0.165
11.16,0.212,0.165
11.164,0.203,0.182
11.168,0.223,0.185
11.172,0.228,0.185
11.176,0.228,0.2
11.18,0.228,0.193
11.184,0.225,0.188
11.188,0.217,0.17
11.192,0.2,0.177
11.196,0.2,0.172
11.2,0.217,0.182
11.204,0.217,0.188
11.208,0.23,0.193
11.212,0.225,0.203
11.216,0.233,0.195
11.22,0.23,0.182
11.224,0.217,0.175
11.228,0.212,0.175
11.232,0.223,0.188
11.236,0.22,0.19
11.24,0.223,0.205
11.244,0.228,0.198
11.248,0.228,0.193
11.252,0.225,0.185
11.256,0.22,0.175
11.26,0.215,0.182
11.264,0.212,0.188
11.268,0.212,0.203
11.272,0.217,0.203
11.276,0.225,0.205
11.28,0.228,0.205
11.284,0.225,0.193
11.288,0.223,0.177
11.292,0.215,0.182
11.296,0.217,0.175
11.3,0.212,0.195
11.304,0.217,0.205
11.308,0.225,0.205
11.312,0.237,0.198
11.316,0.242,0.177
11.32,0.23,0.182
11.324,0.228,0.18
11.328,0.225,0.195
11.332,0.228,0.195
11.336,0.228,0.188
11.34,0.237,0.195
11.344,0.258,0.205
11.348,0.268,0.188
11.352,0.247,0.182
11.356,0.247,0.177
11.36,0.24,0.182
11.364,0.233,0.177
11.368,0.235,0.18
11.372,0.258,0.198
11.376,0.28,0.203
11.38,0.297,0.235
11.384,0.315,0.263
11.388,0.338,0.355
11.392,0.36,0.475
11.396,0.42,0.618
11.4,0.512,0.76
11.404,0.585,0.853
11.408,0.63,0.858
11.412,0.637,0.818
11.416,0.578,0.77
11.42,0.485,0.715
11.424,0.375,0.705
11.428,0.268,0.695
11.432,0.19,0.685
11.436,0.138,0.69
11.44,0.075,0.688
11.444,0.025,0.66
11.448,-0.022,0.62
11.452,-0.072,0.55
11.456,-0.08,0.482
11.46,-0.085,0.405
11.464,-0.028,0.352
11.468,0.013,0.328
11.472,0.06,0.312
11.476,0.09,0.285
11.48,0.105,0.247
11.484,0.09,0.212
11.488,0.075,0.17
11.492,0.077,0.14
11.496,0.087,0.138
11.5,0.125,0.142
11.504,0.168,0.138
11.508,0.193,0.133
11.512,0.212,0.133
11.516,0.212,0.1
11.52,0.212,0.095
11.524,0.198,0.087
11.528,0.193,0.085
11.532,0.182,0.09
11.536,0.185,0.095
11.54,0.21,0.095
11.544,0.225,0.098
11.548,0.235,0.087
11.552,0.228,0.065
11.556,0.223,0.06
11.56,0.215,0.055
11.564,0.198,0.062
11.568,0.217,0.072
11.572,0.22,0.068
11.576,0.233,0.08
11.58,0.237,0.07
11.584,0.235,0.06
11.588,0.228,0.043
11.592,0.22,0.048
11.596,0.215,0.04
11.6,0.21,0.043
11.604,0.228,0.055
11.608,0.23,0.05
11.612,0.233,0.055
11.616,0.237,0.037
11.62,0.223,0.01
11.624,0.225,0.01
11.628,0.233,0.005
11.632,0.237,0.007
11.636,0.247,0.007
11.64,0.253,0.005
11.644,0.273,-0.005
11.648,0.258,-0.022
11.652,0.263,-0.048
11.656,0.268,-0.055
11.66,0.265,-0.075
11.664,0.273,-0.08
11.668,0.282,-0.068
11.672,0.297,-0.068
11.676,0.305,-0.075
11.68,0.325,-0.085
11.684,0.328,-0.102
11.688,0.318,-0.115
11.692,0.31,-0.117
11.696,0.333,-0.12
11.7,0.335,-0.11
11.704,0.36,-0.11
11.708,0.383,-0.113
11.712,0.398,-0.107
11.716,0.403,-0.113
11.72,0.417,-0.122
11.724,0.417,-0.125
11.728,0.427,-0.115
11.732,0.43,-0.107
11.736,0.453,-0.087
11.74,0.475,-0.08
11.744,0.49,-0.075
11.748,0.507,-0.08
11.752,0.512,-0.083
11.756,0.52,-0.068
11.76,0.515,-0.077
11.764,0.525,-0.05
11.768,0.537,-0.033
11.772,0.557,-0.015
11.776,0.573,-0.013
11.78,0.583,-0.003
11.784,0.585,0.003
11.788,0.578,-0.013
11.792,0.565,-0.003
11.796,0.547,0.018
11.8,0.542,0.033
11.804,0.537,0.065
11.808,0.54,0.072
11.812,0.537,0.08
11.816,0.522,0.08
11.82,0.495,0.062
11.824,0.47,0.065
11.828,0.45,0.09
11.832,0.432,0.087
11.836,0.42,0.117
11.84,0.41,0.125
11.844,0.393,0.115
11.848,0.388,0.125
11.852,0.357,0.102
11.856,0.352,0.1
11.86,0.333,0.113
11.864,0.328,0.115
11.868,0.328,0.12
11.872,0.325,0.133
11.876,0.338,0.14
11.88,0.335,0.14
11.884,0.318,0.133
11.888,0.307,0.13
11.892,0.287,0.117
11.896,0.278,0.128
11.9,0.275,0.138
11.904,0.278,0.155
11.908,0.3,0.158
11.912,0.305,0.158
11.916,0.302,0.15
11.92,0.292,0.142
11.924,0.29,0.133
11.928,0.27,0.135
11.932,0.273,0.142
11.936,0.273,0.158
11.94,0.27,0.175
11.944,0.287,0.175
11.948,0.29,0.16
11.952,0.287,0.158
11.956,0.27,0.147
11.96,0.253,0.152
11.964,0.265,0.158
11.968,0.265,0.163
11.972,0.278,0.172
11.976,0.287,0.175
11.98,0.287,0.177
11.984,0.278,0.158
11.988,0.273,0.155
11.992,0.253,0.145
11.996,0.242,0.163
12,0.25,0.163
12.004,0.263,0.177
12.008,0.27,0.18
12.012,0.28,0.185
12.016,0.28,0.172
12.02,0.263,0.165
12.024,0.255,0.155
12.028,0.253,0.168
12.032,0.253,0.165
12.036,0.242,0.185
12.04,0.258,0.193
12.044,0.258,0.185
12.048,0.258,0.19
12.052,0.263,0.172
12.056,0.258,0.163
12.06,0.247,0.17
12.064,0.25,0.158
12.068,0.25,0.177
12.072,0.25,0.193
12.076,0.263,0.195
12.08,0.27,0.188
12.084,0.263,0.18
12.088,0.258,0.175
12.092,0.253,0.177
12.096,0.237,0.17
12.1,0.233,0.177
12.104,0.245,0.193
12.108,0.255,0.19
12.112,0.27,0.185
12.116,0.25,0.188
12.12,0.242,0.18
12.124,0.24,0.172
12.128,0.242,0.17
12.132,0.242,0.172
12.136,0.25,0.185
12.14,0.247,0.203
12.144,0.265,0.205
12.148,0.268,0.203
12.152,0.25,0.188
12.156,0.23,0.188
12.16,0.225,0.185
12.164,0.212,0.19
12.168,0.22,0.195
12.172,0.223,0.212
12.176,0.24,0.203
12.18,0.247,0.212
12.184,0.237,0.198
12.188,0.242,0.188
12.192,0.235,0.177
12.196,0.23,0.172
12.2,0.242,0.195
12.204,0.25,0.19
12.208,0.258,0.19
12.212,0.263,0.188
12.216,0.258,0.177
12.22,0.247,0.175
12.224,0.242,0.165
12.228,0.237,0.165
12.232,0.233,0.172
12.236,0.237,0.177
12.24,0.247,0.188
12.244,0.255,0.18
12.248,0.258,0.18
12.252,0.255,0.17
12.256,0.24,0.15
12.26,0.237,0.152
12.264,0.228,0.155
12.268,0.24,0.168
12.272,0.25,0.172
12.276,0.255,0.177
12.28,0.265,0.175
12.284,0.258,0.15
12.288,0.245,0.142
12.292,0.24,0.155
12.296,0.237,0.152
12.3,0.23,0.158
12.304,0.235,0.188
12.308,0.25,0.175
12.312,0.26,0.172
12.316,0.255,0.165
12.32,0.247,0.15
12.324,0.237,0.145
12.328,0.23,0.147
12.332,0.233,0.15
12.336,0.228,0.175
12.34,0.242,0.165
12.344,0.253,0.175
12.348,0.245,0.165
12.352,0.245,0.155
12.356,0.24,0.155
12.36,0.217,0.145
12.364,0.217,0.142
12.368,0.23,0.163
12.372,0.247,0.168
12.376,0.247,0.16
12.38,0.247,0.168
12.384,0.25,0.15
12.388,0.242,0.142
12.392,0.24,0.147
12.396,0.223,0.133
12.4,0.235,0.14
12.404,0.24,0.172
12.408,0.253,0.185
12.412,0.258,0.172
12.416,0.25,0.163
12.42,0.245,0.145
12.424,0.22,0.152
12.428,0.223,0.155
12.432,0.228,0.165
12.436,0.235,0.177
12.44,0.25,0.175
12.444,0.255,0.177
12.448,0.253,0.168
12.452,0.242,0.155
12.456,0.235,0.152
12.46,0.223,0.158
12.464,0.223,0.142
12.468,0.228,0.16
12.472,0.247,0.168
12.476,0.263,0.172
12.48,0.26,0.17
12.484,0.255,0.155
12.488,0.24,0.142
12.492,0.235,0.138
12.496,0.225,0.147
12.5,0.228,0.158
12.504,0.24,0.175
12.508,0.24,0.177
12.512,0.253,0.16
12.516,0.255,0.152
12.52,0.235,0.147
12.524,0.215,0.145
12.528,0.21,0.15
12.532,0.223,0.163
12.536,0.223,0.175
12.54,0.23,0.172
12.544,0.235,0.165
12.548,0.24,0.158
12.552,0.235,0.163
12.556,0.212,0.155
12.56,0.215,0.14
12.564,0.207,0.142
12.568,0.215,0.158
12.572,0.223,0.158
12.576,0.235,0.168
12.58,0.242,0.155
12.584,0.235,0.15
12.588,0.215,0.142
12.592,0.215,0.142
12.596,0.22,0.142
12.6,0.212,0.152
12.604,0.217,0.17
12.608,0.228,0.16
12.612,0.23,0.165
12.616,0.228,0.155
12.62,0.23,0.14
12.624,0.2,0.13
12.628,0.207,0.13
12.632,0.198,0.138
12.636,0.215,0.152
12.64,0.225,0.17
12.644,0.233,0.16
12.648,0.215,0.163
12.652,0.217,0.147
12.656,0.207,0.14
12.66,0.198,0.135
12.664,0.195,0.145
12.668,0.195,0.147
12.672,0.217,0.155
12.676,0.22,0.15
12.68,0.225,0.15
12.684,0.235,0.135
12.688,0.21,0.13
12.692,0.2,0.125
12.696,0.188,0.135
12.7,0.19,0.142
12.704,0.207,0.152
12.708,0.217,0.158
12.712,0.223,0.163
12.716,0.215,0.138
12.72,0.212,0.128
12.724,0.185,0.115
12.728,0.182,0.122
12.732,0.193,0.135
12.736,0.198,0.142
12.74,0.205,0.158
12.744,0.217,0.145
12.748,0.22,0.145
12.752,0.21,0.122
12.756,0.193,0.117
12.76,0.188,0.115
12.764,0.182,0.115
12.768,0.188,0.14
12.772,0.19,0.15
12.776,0.205,0.135
12.78,0.205,0.135
12.784,0.207,0.133
12.788,0.2,0.11
12.792,0.185,0.125
12.796,0.175,0.122
12.8,0.177,0.13
12.804,0.195,0.147
12.808,0.21,0.155
12.812,0.21,0.138
12.816,0.205,0.13
12.82,0.193,0.125
12.824,0.177,0.122
12.828,0.172,0.128
12.832,0.177,0.13
12.836,0.175,0.152
12.84,0.193,0.152
12.844,0.203,0.152
12.848,0.207,0.142
12.852,0.2,0.135
12.856,0.177,0.122
12.86,0.17,0.13
12.864,0.168,0.122
12.868,0.168,0.138
12.872,0.185,0.145
12.876,0.195,0.138
12.88,0.188,0.128
12.884,0.182,0.125
12.888,0.18,0.107
12.892,0.168,0.125
12.896,0.168,0.12
12.9,0.158,0.133
12.904,0.17,0.145
12.908,0.182,0.155
12.912,0.188,0.147
12.916,0.188,0.147
12.92,0.18,0.115
12.924,0.17,0.115
12.928,0.17,0.107
12.932,0.17,0.117
12.936,0.2,0.17
12.94,0.228,0.22
12.944,0.255,0.302
12.948,0.297,0.417
12.952,0.347,0.583
12.956,0.398,0.71
12.96,0.46,0.792
12.964,0.49,0.79
12.968,0.477,0.755
12.972,0.44,0.725
12.976,0.357,0.672
12.98,0.258,0.675
12.984,0.152,0.647
12.988,0.05,0.623
12.992,-0.025,0.63
12.996,-0.072,0.62
13,-0.117,0.608
13.004,-0.165,0.565
13.008,-0.203,0.527
13.012,-0.223,0.458
13.016,-0.21,0.357
13.02,-0.172,0.297
13.024,-0.142,0.24
13.028,-0.102,0.198
13.032,-0.065,0.177
13.036,-0.058,0.152
13.04,-0.055,0.158
13.044,-0.035,0.135
13.048,-0.02,0.092
13.052,0.007,0.077
13.056,0.04,0.055
13.06,0.055,0.045
13.064,0.07,0.043
13.068,0.068,0.052
13.072,0.08,0.055
13.076,0.087,0.05
13.08,0.09,0.04
13.084,0.098,0.035
13.088,0.085,0.003
13.092,0.085,0.01
13.096,0.085,0.003
13.1,0.092,0.013
13.104,0.098,0.02
13.108,0.102,0.025
13.112,0.125,0.02
13.116,0.107,0.01
13.12,0.098,-0.013
13.124,0.098,-0.02
13.128,0.083,-0.018
13.132,0.072,-0.018
13.136,0.072,0
13.14,0.092,0.003
13.144,0.102,0
13.148,0.1,-0.015
13.152,0.095,-0.025
13.156,0.092,-0.045
13.16,0.075,-0.033
13.164,0.072,-0.05
13.168,0.072,-0.048
13.172,0.085,-0.037
13.176,0.098,-0.048
13.18,0.102,-0.052
13.184,0.107,-0.08
13.188,0.092,-0.098
13.192,0.087,-0.107
13.196,0.08,-0.107
13.2,0.098,-0.102
13.204,0.11,-0.11
13.208,0.128,-0.113
13.212,0.145,-0.135
13.216,0.138,-0.145
13.22,0.135,-0.17
13.224,0.125,-0.175
13.228,0.133,-0.172
13.232,0.14,-0.172
13.236,0.152,-0.17
13.24,0.175,-0.172
13.244,0.182,-0.177
13.248,0.193,-0.182
13.252,0.19,-0.198
13.256,0.195,-0.217
13.26,0.203,-0.215
13.264,0.207,-0.21
13.268,0.22,-0.193
13.272,0.24,-0.193
13.276,0.268,-0.193
13.28,0.282,-0.175
13.284,0.282,-0.185
13.288,0.292,-0.195
13.292,0.278,-0.2
13.296,0.292,-0.185
13.3,0.312,-0.165
13.304,0.34,-0.155
13.308,0.355,-0.142
13.312,0.372,-0.133
13.316,0.388,-0.133
13.32,0.375,-0.125
13.324,0.385,-0.125
13.328,0.383,-0.102
13.332,0.39,-0.1
13.336,0.39,-0.075
13.34,0.403,-0.058
13.344,0.41,-0.05
13.348,0.41,-0.05
13.352,0.393,-0.05
13.356,0.367,-0.05
13.36,0.35,-0.025
13.364,0.33,-0.018
13.368,0.312,-0.007
13.372,0.302,0.013
13.376,0.307,0.02
13.38,0.297,0.02
13.384,0.28,0.022
13.388,0.25,0.007
13.392,0.225,0.007
13.396,0.207,0.007
13.4,0.2,0.018
13.404,0.195,0.03
13.408,0.182,0.043
13.412,0.19,0.052
13.416,0.165,0.035
13.42,0.15,0.028
13.424,0.142,0.03
13.428,0.125,0.04
13.432,0.128,0.048
13.436,0.115,0.058
13.44,0.122,0.065
13.444,0.117,0.07
13.448,0.122,0.062
13.452,0.1,0.048
13.456,0.087,0.037
13.46,0.068,0.06
13.464,0.072,0.055
13.468,0.075,0.068
13.472,0.095,0.083
13.476,0.083,0.085
13.48,0.09,0.07
13.484,0.077,0.07
13.488,0.072,0.072
13.492,0.058,0.058
13.496,0.062,0.068
13.5,0.052,0.068
13.504,0.055,0.095
13.508,0.068,0.085
13.512,0.077,0.087
13.516,0.077,0.077
13.52,0.065,0.065
13.524,0.06,0.06
13.528,0.048,0.062
13.532,0.048,0.077
13.536,0.06,0.087
13.54,0.058,0.098
13.544,0.068,0.092
13.548,0.065,0.08
13.552,0.045,0.075
13.556,0.03,0.072
13.56,0.025,0.07
13.564,0.025,0.077
13.568,0.033,0.087
13.572,0.04,0.11
13.576,0.04,0.098
13.58,0.04,0.1
13.584,0.045,0.08
13.588,0.033,0.085
13.592,0.022,0.08
13.596,0.01,0.07
13.6,0.02,0.087
13.604,0.015,0.087
13.608,0.028,0.095
13.612,0.037,0.1
13.616,0.03,0.087
13.62,0.028,0.06
13.624,0.028,0.068
13.628,0.025,0.062
13.632,0.028,0.075
13.636,0.022,0.083
13.64,0.033,0.085
13.644,0.037,0.087
13.648,0.028,0.085
13.652,0.015,0.068
13.656,0.02,0.062
13.66,0.003,0.068
13.664,0.005,0.072
13.668,0.003,0.092
13.672,0.013,0.102
13.676,0.022,0.09
13.68,0.022,0.09
13.684,0.025,0.085
13.688,0,0.077
13.692,-0.01,0.072
13.696,-0.015,0.092
13.7,-0.02,0.102
13.704,-0.025,0.107
13.708,-0.018,0.117
13.712,-0.007,0.113
13.716,-0.007,0.095
13.72,-0.025,0.09
13.724,-0.03,0.087
13.728,-0.028,0.08
13.732,-0.013,0.077
13.736,-0.007,0.1
13.74,0.005,0.098
13.744,0.007,0.092
13.748,0.007,0.083
13.752,-0.003,0.065
13.756,-0.02,0.05
13.76,-0.033,0.065
13.764,-0.028,0.07
13.768,-0.02,0.075
13.772,-0.01,0.095
13.776,-0.01,0.092
13.78,0.013,0.08
13.784,0,0.083
13.788,-0.018,0.07
13.792,-0.028,0.062
13.796,-0.033,0.065
13.8,-0.035,0.075
13.804,-0.035,0.077
13.808,-0.013,0.083
13.812,-0.013,0.068
13.816,-0.02,0.07
13.82,-0.04,0.052
13.824,-0.037,0.06
13.828,-0.035,0.052
13.832,-0.03,0.052
13.836,-0.037,0.06
13.84,-0.01,0.08
13.844,-0.015,0.07
13.848,-0.01,0.062
13.852,-0.022,0.052
13.856,-0.033,0.048
13.86,-0.05,0.055
13.864,-0.048,0.05
13.868,-0.045,0.062
13.872,-0.028,0.065
13.876,-0.022,0.077
13.88,-0.022,0.085
13.884,-0.033,0.065
13.888,-0.037,0.052
13.892,-0.043,0.048
13.896,-0.06,0.045
13.9,-0.06,0.072
13.904,-0.048,0.072
13.908,-0.05,0.07
13.912,-0.03,0.062
13.916,-0.025,0.05
13.92,-0.04,0.055
13.924,-0.052,0.045
13.928,-0.058,0.04
13.932,-0.055,0.062
13.936,-0.052,0.07
13.94,-0.043,0.065
13.944,-0.043,0.065
13.948,-0.025,0.058
13.952,-0.037,0.052
13.956,-0.05,0.055
13.96,-0.068,0.045
13.964,-0.062,0.05
13.968,-0.062,0.06
13.972,-0.048,0.068
13.976,-0.04,0.08
13.98,-0.045,0.077
13.984,-0.043,0.055
13.988,-0.055,0.043
13.992,-0.06,0.045
13.996,-0.068,0.045
14,-0.065,0.065
14.004,-0.055,0.085
14.008,-0.058,0.065
14.012,-0.04,0.068
14.016,-0.04,0.052
14.02,-0.055,0.05
14.024,-0.065,0.037
14.028,-0.08,0.055
14.032,-0.072,0.058
14.036,-0.077,0.065
14.04,-0.065,0.072
14.044,-0.052,0.068
14.048,-0.052,0.058
14.052,-0.043,0.043
14.056,-0.062,0.04
14.06,-0.077,0.048
14.064,-0.068,0.055
14.068,-0.075,0.058
14.072,-0.065,0.07
14.076,-0.055,0.068
14.08,-0.055,0.062
14.084,-0.062,0.06
14.088,-0.062,0.048
14.092,-0.085,0.048
14.096,-0.085,0.058
14.1,-0.085,0.068
14.104,-0.072,0.075
14.108,-0.065,0.08
14.112,-0.068,0.083
14.116,-0.062,0.072
14.12,-0.072,0.065
14.124,-0.077,0.058
14.128,-0.083,0.052
14.132,-0.087,0.062
14.136,-0.08,0.072
14.14,-0.083,0.072
14.144,-0.075,0.077
14.148,-0.077,0.06
14.152,-0.087,0.062
14.156,-0.09,0.05
14.16,-0.087,0.05
14.164,-0.102,0.052
14.168,-0.092,0.065
14.172,-0.085,0.058
14.176,-0.065,0.075
14.18,-0.07,0.07
14.184,-0.077,0.05
14.188,-0.087,0.055
14.192,-0.092,0.045
14.196,-0.087,0.033
14.2,-0.095,0.068
14.204,-0.087,0.07
14.208,-0.08,0.075
14.212,-0.08,0.077
14.216,-0.075,0.06
14.22,-0.077,0.045
14.224,-0.085,0.045
14.228,-0.095,0.037
14.232,-0.1,0.058
14.236,-0.095,0.068
14.24,-0.092,0.07
14.244,-0.08,0.06
14.248,-0.087,0.062
14.252,-0.09,0.065
14.256,-0.105,0.037
14.26,-0.11,0.048
14.264,-0.115,0.06
14.268,-0.102,0.062
14.272,-0.087,0.065
14.276,-0.08,0.065
14.28,-0.072,0.06
14.284,-0.07,0.048
14.288,-0.083,0.048
14.292,-0.102,0.04
14.296,-0.11,0.035
14.3,-0.102,0.05
14.304,-0.09,0.058
14.308,-0.07,0.062
14.312,-0.08,0.068
14.316,-0.085,0.052
14.32,-0.09,0.043
14.324,-0.102,0.025
14.328,-0.107,0.037
14.332,-0.105,0.043
14.336,-0.107,0.048
14.34,-0.085,0.065
14.344,-0.08,0.062
14.348,-0.092,0.045
14.352,-0.098,0.048
14.356,-0.105,0.033
14.36,-0.122,0.033
14.364,-0.117,0.043
14.368,-0.12,0.04
14.372,-0.105,0.06
14.376,-0.092,0.055
14.38,-0.098,0.05
14.384,-0.087,0.033
14.388,-0.105,0.025
14.392,-0.115,0.025
14.396,-0.122,0.022
14.4,-0.128,0.028
14.404,-0.105,0.045
14.408,-0.1,0.048
14.412,-0.09,0.043
14.416,-0.1,0.035
14.42,-0.115,0.025
14.424,-0.12,0.022
14.428,-0.113,0.033
14.432,-0.12,0.028
14.436,-0.125,0.052
14.44,-0.107,0.052
14.444,-0.102,0.052
14.448,-0.1,0.055
14.452,-0.102,0.035
14.456,-0.128,0.03
14.46,-0.125,0.022
14.464,-0.13,0.03
14.468,-0.135,0.05
14.472,-0.128,0.062
14.476,-0.117,0.062
14.48,-0.1,0.05
14.484,-0.102,0.052
14.488,-0.075,0.092
14.492,-0.058,0.165
14.496,-0.025,0.295
14.5,0.035,0.472
14.504,0.113,0.632
14.508,0.203,0.728
14.512,0.242,0.73
14.516,0.23,0.688
14.52,0.17,0.632
14.524,0.077,0.59
14.528,-0.04,0.568
14.532,-0.177,0.557
14.536,-0.305,0.568
14.54,-0.422,0.568
14.544,-0.507,0.535
14.548,-0.585,0.497
14.552,-0.637,0.448
14.556,-0.652,0.37
14.56,-0.632,0.312
14.564,-0.578,0.258
14.568,-0.52,0.228
14.572,-0.45,0.198
14.576,-0.405,0.152
14.58,-0.367,0.105
14.584,-0.365,0.06
14.588,-0.345,0.018
14.592,-0.328,-0.005
14.596,-0.292,-0.018
14.6,-0.258,-0.013
14.604,-0.225,-0.022
14.608,-0.185,-0.035
14.612,-0.177,-0.033
14.616,-0.175,-0.052
14.62,-0.185,-0.07
14.624,-0.195,-0.07
14.628,-0.207,-0.072
14.632,-0.198,-0.077
14.636,-0.203,-0.06
14.64,-0.175,-0.062
14.644,-0.172,-0.068
14.648,-0.172,-0.07
14.652,-0.175,-0.072
14.656,-0.185,-0.095
14.66,-0.193,-0.1
14.664,-0.2,-0.102
14.668,-0.193,-0.092
14.672,-0.182,-0.09
14.676,-0.16,-0.09
14.68,-0.16,-0.102
14.684,-0.172,-0.107
14.688,-0.18,-0.115
14.692,-0.182,-0.145
14.696,-0.19,-0.122
14.7,-0.182,-0.142
14.704,-0.172,-0.125
14.708,-0.168,-0.117
14.712,-0.165,-0.133
14.716,-0.147,-0.147
14.72,-0.145,-0.16
14.724,-0.165,-0.18
14.728,-0.17,-0.172
14.732,-0.165,-0.175
14.736,-0.16,-0.18
14.74,-0.147,-0.18
14.744,-0.135,-0.185
14.748,-0.133,-0.188
14.752,-0.128,-0.195
14.756,-0.142,-0.223
14.76,-0.145,-0.245
14.764,-0.133,-0.237
14.768,-0.122,-0.237
14.772,-0.105,-0.24
14.776,-0.102,-0.25
14.78,-0.092,-0.25
14.784,-0.077,-0.278
14.788,-0.075,-0.292
14.792,-0.065,-0.297
14.796,-0.058,-0.3
14.8,-0.05,-0.287
14.804,-0.02,-0.278
14.808,-0.005,-0.27
14.812,0.015,-0.28
14.816,0.018,-0.29
14.82,0.03,-0.292
14.824,0.03,-0.29
14.828,0.037,-0.287
14.832,0.058,-0.268
14.836,0.083,-0.258
14.84,0.092,-0.247
14.844,0.113,-0.242
14.848,0.122,-0.235
14.852,0.13,-0.233
14.856,0.125,-0.24
14.86,0.122,-0.22
14.864,0.133,-0.22
14.868,0.147,-0.193
14.872,0.168,-0.17
14.876,0.165,-0.16
14.88,0.177,-0.158
14.884,0.17,-0.16
14.888,0.163,-0.17
14.892,0.158,-0.165
14.896,0.14,-0.147
14.9,0.115,-0.133
14.904,0.12,-0.113
14.908,0.115,-0.102
14.912,0.095,-0.077
14.916,0.083,-0.092
14.92,0.068,-0.087
14.924,0.03,-0.098
14.928,0.018,-0.08
14.932,-0.003,-0.077
14.936,-0.018,-0.058
14.94,-0.03,-0.055
14.944,-0.025,-0.05
14.948,-0.048,-0.052
14.952,-0.072,-0.065
14.956,-0.092,-0.052
14.96,-0.12,-0.055
14.964,-0.12,-0.052
14.968,-0.128,-0.045
14.972,-0.12,-0.025
14.976,-0.122,-0.02
14.98,-0.12,-0.015
14.984,-0.122,-0.035
14.988,-0.142,-0.028
14.992,-0.16,-0.037
14.996,-0.17,-0.033
15,-0.16,-0.028
15.004,-0.16,-0.018
15.008,-0.152,-0.013
15.012,-0.14,0
15.016,-0.138,-0.02
15.02,-0.158,-0.025
15.024,-0.175,-0.025
15.028,-0.182,-0.02
15.032,-0.182,-0.01
15.036,-0.185,-0.005
15.04,-0.165,0.005
15.044,-0.16,0.013
15.048,-0.15,0
15.052,-0.16,-0.013
15.056,-0.182,-0.005
15.06,-0.203,-0.007
15.064,-0.195,0.022
15.068,-0.19,0.022
15.072,-0.188,0.033
15.076,-0.172,0.022
15.08,-0.177,0.025
15.084,-0.18,0.018
15.088,-0.188,0.01
15.092,-0.2,0.01
15.096,-0.198,0.007
15.1,-0.207,0.013
15.104,-0.198,0.03
15.108,-0.19,0.04
15.112,-0.188,0.022
15.116,-0.18,0.015
15.12,-0.185,0.007
15.124,-0.193,-0.005
15.128,-0.203,-0.005
15.132,-0.205,-0.005
15.136,-0.21,0.015
15.14,-0.203,0.018
15.144,-0.188,0.028
15.148,-0.18,0.007
15.152,-0.19,0.007
15.156,-0.203,-0.01
15.16,-0.217,0
15.164,-0.212,0
15.168,-0.215,0.018
15.172,-0.195,0.037
15.176,-0.19,0.033
15.18,-0.188,0.028
15.184,-0.195,0.025
15.188,-0.19,0.007
15.192,-0.21,0.013
15.196,-0.215,0.022
15.2,-0.217,0.018
15.204,-0.205,0.028
15.208,-0.203,0.03
15.212,-0.188,0.035
15.216,-0.198,0.015
15.22,-0.195,0.015
15.224,-0.215,0.005
15.228,-0.212,0.013
15.232,-0.22,0.018
15.236,-0.212,0.025
15.24,-0.198,0.028
15.244,-0.188,0.04
15.248,-0.19,0.035
15.252,-0.2,0.035
15.256,-0.223,0.028
15.26,-0.235,0.028
15.264,-0.235,0.037
15.268,-0.235,0.043
15.272,-0.23,0.062
15.276,-0.223,0.055
15.28,-0.22,0.052
15.284,-0.223,0.045
15.288,-0.242,0.045
15.292,-0.24,0.048
15.296,-0.233,0.03
15.3,-0.225,0.04
15.304,-0.223,0.037
15.308,-0.21,0.048
15.312,-0.2,0.037
15.316,-0.215,0.03
15.32,-0.215,0.018
15.324,-0.215,0.018
15.328,-0.233,0.015
15.332,-0.217,0.015
15.336,-0.212,0.03
15.34,-0.215,0.035
15.344,-0.195,0.045
15.348,-0.19,0.025
15.352,-0.185,0.018
15.356,-0.207,0.01
15.36,-0.22,0.028
15.364,-0.217,0.018
15.368,-0.223,0.033
15.372,-0.215,0.048
15.376,-0.2,0.037
15.38,-0.193,0.037
15.384,-0.203,0.025
15.388,-0.212,0.018
15.392,-0.212,0.025
15.396,-0.225,0.03
15.4,-0.23,0.028
15.404,-0.215,0.048
15.408,-0.2,0.048
15.412,-0.193,0.048
15.416,-0.2,0.035
15.42,-0.205,0.025
15.424,-0.22,0.018
15.428,-0.225,0.028
15.432,-0.215,0.035
15.436,-0.207,0.04
15.44,-0.207,0.058
15.444,-0.188,0.048
15.448,-0.188,0.048
15.452,-0.2,0.033
15.456,-0.193,0.022
15.46,-0.2,0.028
15.464,-0.203,0.022
15.468,-0.207,0.04
15.472,-0.203,0.043
15.476,-0.2,0.05
15.48,-0.205,0.037
15.484,-0.203,0.03
15.488,-0.217,0.022
15.492,-0.223,0.018
15.496,-0.225,0.025
15.5,-0.228,0.035
15.504,-0.21,0.043
15.508,-0.203,0.052
15.512,-0.203,0.045
15.516,-0.193,0.045
15.52,-0.203,0.035
15.524,-0.217,0.025
15.528,-0.217,0.022
15.532,-0.21,0.033
15.536,-0.207,0.037
15.54,-0.185,0.043
15.544,-0.165,0.048
15.548,-0.155,0.035
15.552,-0.145,0.03
15.556,-0.152,0.022
15.56,-0.185,0.005
15.564,-0.215,0.018
15.568,-0.25,0.02
15.572,-0.245,0.03
15.576,-0.23,0.055
15.58,-0.203,0.043
15.584,-0.195,0.022
15.588,-0.195,0.025
15.592,-0.207,0.01
15.596,-0.223,0.018
15.6,-0.22,0.037
15.604,-0.215,0.048
15.608,-0.195,0.043
15.612,-0.182,0.04
15.616,-0.172,0.033
15.62,-0.175,0.013
15.624,-0.185,0.022
15.628,-0.21,0.018
15.632,-0.203,0.025
15.636,-0.19,0.045
15.64,-0.177,0.048
15.644,-0.155,0.033
15.648,-0.14,0.03
15.652,-0.138,0.018
15.656,-0.165,0.007
15.66,-0.212,0.005
15.664,-0.245,0.005
15.668,-0.265,0.013
15.672,-0.237,0.025
15.676,-0.207,0.03
15.68,-0.182,0.015
15.684,-0.177,0.018
15.688,-0.185,0.013
15.692,-0.198,0.007
15.696,-0.207,0.022
15.7,-0.195,0.022
15.704,-0.177,0.028
15.708,-0.177,0.035
15.712,-0.182,0.03
15.716,-0.177,0.015
15.72,-0.182,0.003
15.724,-0.193,0.005
15.728,-0.188,0
15.732,-0.175,0.007
15.736,-0.188,0.015
15.74,-0.18,0.025
15.744,-0.177,0.02
15.748,-0.177,0
15.752,-0.168,-0.003
15.756,-0.18,-0.007
15.76,-0.185,-0.003
15.764,-0.185,-0.005
15.768,-0.2,-0.007
15.772,-0.182,0.01
15.776,-0.168,0.01
15.78,-0.138,0.005
15.784,-0.122,-0.01
15.788,-0.11,-0.003
15.792,-0.117,-0.007
15.796,-0.142,0
15.8,-0.168,0.01
15.804,-0.18,0.018
15.808,-0.177,0.03
15.812,-0.163,0.025
15.816,-0.145,0.028
15.82,-0.15,0.003
15.824,-0.152,0
15.828,-0.158,-0.003
15.832,-0.16,0.005
15.836,-0.158,0.013
15.84,-0.145,0.03
15.844,-0.135,0.013
15.848,-0.138,0.018
15.852,-0.163,0.003
15.856,-0.175,-0.013
15.86,-0.175,-0.007
15.864,-0.16,0.005
15.868,-0.152,0.005
15.872,-0.128,0.018
15.876,-0.122,0.02
15.88,-0.13,0.013
15.884,-0.125,0
15.888,-0.14,-0.003
15.892,-0.133,-0.005
15.896,-0.11,-0.005
15.9,-0.105,-0.015
15.904,-0.098,0
15.908,-0.098,0.005
15.912,-0.11,0
15.916,-0.128,0
15.92,-0.138,-0.028
15.924,-0.152,-0.025
15.928,-0.147,-0.028
15.932,-0.14,-0.022
15.936,-0.13,-0.02
15.94,-0.115,-0.005
15.944,-0.113,0.003
15.948,-0.107,-0.018
15.952,-0.12,-0.028
15.956,-0.133,-0.045
15.96,-0.142,-0.043
15.964,-0.13,-0.033
15.968,-0.12,-0.025
15.972,-0.102,-0.015
15.976,-0.092,-0.028
15.98,-0.077,-0.043
15.984,-0.092,-0.048
15.988,-0.115,-0.052
15.992,-0.152,-0.058
15.996,-0.18,-0.052
16,-0.175,-0.055
16.004,-0.16,-0.03
16.008,-0.142,-0.022
16.012,-0.115,-0.033
16.016,-0.115,-0.033
16.02,-0.12,-0.035
16.024,-0.128,-0.058
16.028,-0.14,-0.055
16.032,-0.147,-0.048
16.036,-0.14,-0.04
16.04,-0.117,-0.02
16.044,-0.08,0.022
16.048,-0.05,0.077
16.052,-0.013,0.172
16.056,0.035,0.31
16.06,0.098,0.45
16.064,0.188,0.578
16.068,0.258,0.647
16.072,0.297,0.645
16.076,0.292,0.608
16.08,0.233,0.55
16.084,0.113,0.522
16.088,-0.02,0.507
16.092,-0.175,0.495
16.096,-0.295,0.497
16.1,-0.393,0.475
16.104,-0.443,0.455
16.108,-0.482,0.417
16.112,-0.492,0.375
16.116,-0.49,0.302
16.12,-0.472,0.245
16.124,-0.438,0.172
16.128,-0.422,0.11
16.132,-0.395,0.055
16.136,-0.375,0.048
16.14,-0.352,0.022
16.144,-0.33,0
16.148,-0.323,-0.04
16.152,-0.333,-0.077
16.156,-0.323,-0.115
16.16,-0.323,-0.125
16.164,-0.32,-0.12
16.168,-0.287,-0.117
16.172,-0.235,-0.117
16.176,-0.225,-0.145
16.18,-0.205,-0.133
16.184,-0.217,-0.155
16.188,-0.22,-0.16
16.192,-0.233,-0.163
16.196,-0.23,-0.17
16.2,-0.225,-0.152
16.204,-0.207,-0.14
16.208,-0.205,-0.15
16.212,-0.193,-0.147
16.216,-0.198,-0.155
16.22,-0.198,-0.168
16.224,-0.215,-0.16
16.228,-0.22,-0.175
16.232,-0.207,-0.16
16.236,-0.203,-0.158
16.24,-0.212,-0.15
16.244,-0.24,-0.15
16.248,-0.24,-0.158
16.252,-0.268,-0.165
16.256,-0.273,-0.18
16.26,-0.273,-0.185
16.264,-0.26,-0.172
16.268,-0.247,-0.163
16.272,-0.233,-0.158
16.276,-0.223,-0.16
16.28,-0.212,-0.175
16.284,-0.21,-0.193
16.288,-0.212,-0.212
16.292,-0.228,-0.215
16.296,-0.217,-0.223
16.3,-0.215,-0.22
16.304,-0.205,-0.207
16.308,-0.193,-0.207
16.312,-0.177,-0.21
16.316,-0.182,-0.23
16.32,-0.182,-0.242
16.324,-0.185,-0.258
16.328,-0.198,-0.26
16.332,-0.177,-0.255
16.336,-0.172,-0.253
16.34,-0.152,-0.26
16.344,-0.138,-0.275
16.348,-0.117,-0.28
16.352,-0.128,-0.3
16.356,-0.128,-0.305
16.36,-0.125,-0.312
16.364,-0.12,-0.312
16.368,-0.1,-0.315
16.372,-0.08,-0.297
16.376,-0.04,-0.305
16.38,-0.015,-0.302
16.384,-0.013,-0.312
16.388,-0.022,-0.325
16.392,-0.05,-0.335
16.396,-0.052,-0.328
16.4,-0.035,-0.32
16.404,0.013,-0.302
16.408,0.043,-0.292
16.412,0.075,-0.285
16.416,0.085,-0.29
16.42,0.083,-0.287
16.424,0.077,-0.297
16.428,0.08,-0.275
16.432,0.107,-0.26
16.436,0.115,-0.237
16.44,0.133,-0.225
16.444,0.152,-0.215
16.448,0.158,-0.2
16.452,0.18,-0.2
16.456,0.168,-0.205
16.46,0.158,-0.198
16.464,0.145,-0.19
16.468,0.145,-0.16
16.472,0.138,-0.138
16.476,0.133,-0.138
16.48,0.122,-0.13
16.484,0.092,-0.13
16.488,0.075,-0.133
16.492,0.045,-0.135
16.496,0.033,-0.115
16.5,0.018,-0.12
16.504,0.007,-0.087
16.508,-0.007,-0.072
16.512,-0.003,-0.087
16.516,-0.01,-0.075
16.52,-0.037,-0.095
16.524,-0.058,-0.095
16.528,-0.092,-0.077
16.532,-0.125,-0.075
16.536,-0.142,-0.065
16.54,-0.147,-0.05
16.544,-0.138,-0.06
16.548,-0.145,-0.065
16.552,-0.175,-0.062
16.556,-0.198,-0.062
16.56,-0.23,-0.065
16.564,-0.235,-0.05
16.568,-0.217,-0.037
16.572,-0.2,-0.025
16.576,-0.177,-0.025
16.58,-0.177,-0.033
16.584,-0.185,-0.028
16.588,-0.2,-0.04
16.592,-0.235,-0.043
16.596,-0.24,-0.052
16.6,-0.233,-0.043
16.604,-0.225,-0.028
16.608,-0.207,-0.025
16.612,-0.217,-0.022
16.616,-0.225,-0.022
16.62,-0.242,-0.04
16.624,-0.245,-0.043
16.628,-0.237,-0.043
16.632,-0.24,-0.033
16.636,-0.247,-0.015
16.64,-0.22,0
16.644,-0.212,-0.003
16.648,-0.198,-0.015
16.652,-0.217,-0.028
16.656,-0.242,-0.037
16.66,-0.258,-0.03
16.664,-0.273,-0.025
16.668,-0.278,-0.015
16.672,-0.278,-0.01
16.676,-0.275,0
16.68,-0.278,-0.007
16.684,-0.278,-0.018
16.688,-0.282,-0.022
16.692,-0.273,-0.028
16.696,-0.265,-0.033
16.7,-0.265,-0.013
16.704,-0.265,-0.007
16.708,-0.258,0.007
16.712,-0.24,0.005
16.716,-0.24,-0.018
16.72,-0.247,-0.03
16.724,-0.265,-0.035
16.728,-0.278,-0.022
16.732,-0.273,-0.02
16.736,-0.285,-0.007
16.74,-0.285,0.005
16.744,-0.28,-0.007
16.748,-0.265,-0.015
16.752,-0.258,-0.03
16.756,-0.273,-0.022
16.76,-0.282,-0.033
16.764,-0.275,-0.005
16.768,-0.29,0.005
16.772,-0.275,0.01
16.776,-0.255,0.005
16.78,-0.25,0
16.784,-0.25,-0.013
16.788,-0.273,-0.02
16.792,-0.287,-0.025
16.796,-0.307,-0.007
16.8,-0.302,-0.003
16.804,-0.3,0.003
16.808,-0.275,0.007
16.812,-0.258,0.003
16.816,-0.25,0.01
16.82,-0.27,0
16.824,-0.295,-0.005
16.828,-0.292,-0.007
16.832,-0.295,-0.01
16.836,-0.292,0.02
16.84,-0.297,0.035
16.844,-0.305,0.025
16.848,-0.312,0.028
16.852,-0.305,0.007
16.856,-0.29,0
16.86,-0.28,-0.005
16.864,-0.263,-0.015
16.868,-0.273,0.013
16.872,-0.282,0.015
16.876,-0.307,0.013
16.88,-0.315,0.007
16.884,-0.323,0.003
16.888,-0.323,0
16.892,-0.31,-0.01
16.896,-0.295,-0.013
16.9,-0.285,0.007
16.904,-0.273,0
16.908,-0.26,0.018
16.912,-0.237,0.013
16.916,-0.24,0
16.92,-0.253,-0.007
16.924,-0.282,-0.028
16.928,-0.315,-0.02
16.932,-0.318,-0.015
16.936,-0.312,0
16.94,-0.263,0.007
16.944,-0.233,0.007
16.948,-0.212,0.007
16.952,-0.212,-0.01
16.956,-0.225,-0.018
16.96,-0.26,-0.022
16.964,-0.278,-0.018
16.968,-0.305,-0.003
16.972,-0.297,0.015
16.976,-0.285,0.025
16.98,-0.268,0.025
16.984,-0.26,0
16.988,-0.273,-0.015
16.992,-0.275,-0.018
16.996,-0.295,-0.007
17,-0.307,0
17.004,-0.318,0.003
17.008,-0.318,0.007
17.012,-0.305,0.005
17.016,-0.295,0
17.02,-0.287,-0.005
17.024,-0.278,-0.01
17.028,-0.263,-0.018
17.032,-0.253,-0.003
17.036,-0.235,0
17.04,-0.233,0.01
17.044,-0.225,0.007
17.048,-0.242,0.013
17.052,-0.268,0.003
17.056,-0.292,-0.013
17.06,-0.292,-0.015
17.064,-0.27,-0.007
17.068,-0.247,0.003
17.072,-0.233,0.018
17.076,-0.235,0.025
17.08,-0.255,0.013
17.084,-0.268,0.01
17.088,-0.275,0
17.092,-0.292,-0.013
17.096,-0.297,-0.007
17.1,-0.285,0.005
17.104,-0.275,0.015
17.108,-0.275,0.025
17.112,-0.27,0.003
17.116,-0.265,0.007
17.12,-0.255,-0.013
17.124,-0.255,-0.018
17.128,-0.265,-0.013
17.132,-0.28,0
17.136,-0.265,0.005
17.14,-0.27,0.01
17.144,-0.255,0.015
17.148,-0.233,0.013
17.152,-0.233,-0.003
17.156,-0.235,-0.025
17.16,-0.242,-0.01
17.164,-0.258,-0.013
17.168,-0.28,0
17.172,-0.275,0.015
17.176,-0.278,0.007
17.18,-0.253,0.007
17.184,-0.237,0
17.188,-0.233,-0.018
17.192,-0.253,-0.01
17.196,-0.285,0
17.2,-0.295,0.003
17.204,-0.295,0.025
17.208,-0.292,0.03
17.212,-0.275,0.015
17.216,-0.253,0.013
17.22,-0.24,0
17.224,-0.273,-0.005
17.228,-0.258,-0.013
17.232,-0.278,-0.005
17.236,-0.26,0.015
17.24,-0.253,0.018
17.244,-0.24,0.01
17.248,-0.223,0.01
17.252,-0.23,0
17.256,-0.255,-0.01
17.26,-0.258,0
17.264,-0.263,0
17.268,-0.242,0.003
17.272,-0.228,0.013
17.276,-0.212,0.022
17.28,-0.215,0.025
17.284,-0.233,0.005
17.288,-0.24,0.005
17.292,-0.255,0
17.296,-0.275,-0.007
17.3,-0.263,0
17.304,-0.26,0.02
17.308,-0.247,0.018
17.312,-0.27,0.022
17.316,-0.285,0.018
17.32,-0.287,0.01
17.324,-0.297,-0.003
17.328,-0.292,0
17.332,-0.27,0.003
17.336,-0.258,0.018
17.34,-0.245,0.022
17.344,-0.237,0.025
17.348,-0.242,0.013
17.352,-0.25,0.013
17.356,-0.258,0.013
17.36,-0.26,0.005
17.364,-0.273,0.018
17.368,-0.273,0.01
17.372,-0.255,0.028
17.376,-0.237,0.018
17.38,-0.23,0.018
17.384,-0.212,0.018
17.388,-0.217,0.01
17.392,-0.19,0.015
17.396,-0.198,0.003
17.4,-0.235,0.005
17.404,-0.268,0.018
17.408,-0.282,0.02
17.412,-0.275,0.025
17.416,-0.247,0.018
17.42,-0.23,0
17.424,-0.235,0.003
17.428,-0.253,0
17.432,-0.255,0.003
17.436,-0.263,0.022
17.44,-0.255,0.035
17.444,-0.245,0.035
17.448,-0.23,0.028
17.452,-0.225,0.005
17.456,-0.233,0
17.46,-0.235,0.007
17.464,-0.23,0.013
17.468,-0.228,0.015
17.472,-0.217,0.018
17.476,-0.215,0.03
17.48,-0.215,0.033
17.484,-0.21,0.025
17.488,-0.21,0.013
17.492,-0.228,0.007
17.496,-0.225,0.003
17.5,-0.215,0.007
17.504,-0.2,0.02
17.508,-0.188,0.028
17.512,-0.19,0.035
17.516,-0.2,0.03
17.52,-0.23,0.015
17.524,-0.245,0.003
17.528,-0.24,-0.005
17.532,-0.215,0.005
17.536,-0.2,0.02
17.54,-0.193,0.018
17.544,-0.19,0.033
17.548,-0.193,0.018
17.552,-0.203,0.01
17.556,-0.212,0.003
17.56,-0.207,0.015
17.564,-0.212,0.005
17.568,-0.215,0.033
17.572,-0.215,0.035
17.576,-0.21,0.028
17.58,-0.193,0.03
17.584,-0.19,0.013
17.588,-0.193,0.01
17.592,-0.217,0.018
17.596,-0.217,0.075
17.6,-0.207,0.155
17.604,-0.147,0.275
17.608,-0.075,0.422
17.612,0.025,0.56
17.616,0.115,0.68
17.62,0.158,0.718
17.624,0.16,0.698
17.628,0.105,0.645
17.632,0.005,0.618
17.636,-0.122,0.62
17.64,-0.245,0.6
17.644,-0.307,0.608
17.648,-0.388,0.595
17.652,-0.438,0.575
17.656,-0.487,0.537
17.66,-0.547,0.497
17.664,-0.588,0.46
17.668,-0.613,0.43
17.672,-0.59,0.385
17.676,-0.537,0.307
17.68,-0.472,0.23
17.684,-0.412,0.16
17.688,-0.398,0.095
17.692,-0.383,0.077
17.696,-0.395,0.055
17.7,-0.385,0.033
17.704,-0.36,0.007
17.708,-0.307,-0.013
17.712,-0.265,-0.035
17.716,-0.245,-0.055
17.72,-0.23,-0.075
17.724,-0.253,-0.08
17.728,-0.247,-0.087
17.732,-0.265,-0.08
17.736,-0.26,-0.08
17.74,-0.223,-0.075
17.744,-0.212,-0.085
17.748,-0.2,-0.087
17.752,-0.21,-0.105
17.756,-0.228,-0.11
17.76,-0.215,-0.105
17.764,-0.2,-0.105
17.768,-0.19,-0.105
17.772,-0.195,-0.102
17.776,-0.18,-0.113
17.78,-0.177,-0.102
17.784,-0.19,-0.13
17.788,-0.212,-0.133
17.792,-0.223,-0.155
17.796,-0.233,-0.145
17.8,-0.235,-0.135
17.804,-0.215,-0.122
17.808,-0.195,-0.135
17.812,-0.19,-0.133
17.816,-0.185,-0.158
17.82,-0.203,-0.158
17.824,-0.205,-0.182
17.828,-0.223,-0.188
17.832,-0.217,-0.193
17.836,-0.215,-0.185
17.84,-0.2,-0.182
17.844,-0.19,-0.185
17.848,-0.177,-0.205
17.852,-0.188,-0.223
17.856,-0.2,-0.22
17.86,-0.223,-0.242
17.864,-0.225,-0.245
17.868,-0.22,-0.247
17.872,-0.21,-0.235
17.876,-0.195,-0.225
17.88,-0.177,-0.23
17.884,-0.17,-0.26
17.888,-0.17,-0.28
17.892,-0.16,-0.302
17.896,-0.147,-0.312
17.9,-0.117,-0.302
17.904,-0.115,-0.297
17.908,-0.08,-0.285
17.912,-0.06,-0.287
17.916,-0.068,-0.302
17.92,-0.058,-0.328
17.924,-0.06,-0.323
17.928,-0.068,-0.323
17.932,-0.058,-0.32
17.936,-0.04,-0.31
17.94,-0.005,-0.302
17.944,0.005,-0.297
17.948,0.028,-0.302
17.952,0.045,-0.297
17.956,0.037,-0.297
17.96,0.05,-0.295
17.964,0.068,-0.282
17.968,0.077,-0.282
17.972,0.095,-0.247
17.976,0.098,-0.237
17.98,0.113,-0.237
17.984,0.105,-0.217
17.988,0.11,-0.24
17.992,0.087,-0.215
17.996,0.09,-0.2
18,0.085,-0.188
18.004,0.092,-0.163
18.008,0.1,-0.145
18.012,0.09,-0.142
18.016,0.09,-0.147
18.02,0.055,-0.142
18.024,0.04,-0.138
18.028,0.03,-0.133
18.032,0.018,-0.11
18.036,0.013,-0.105
18.04,0,-0.107
18.044,-0.007,-0.087
18.048,-0.022,-0.085
18.052,-0.052,-0.092
18.056,-0.077,-0.098
18.06,-0.083,-0.083
18.064,-0.09,-0.077
18.068,-0.083,-0.075
18.072,-0.098,-0.058
18.076,-0.087,-0.035
18.08,-0.083,-0.055
18.084,-0.102,-0.058
18.088,-0.13,-0.048
18.092,-0.175,-0.06
18.096,-0.2,-0.05
18.1,-0.203,-0.048
18.104,-0.18,-0.025
18.108,-0.158,-0.01
18.112,-0.16,-0.02
18.116,-0.175,-0.022
18.12,-0.21,-0.025
18.124,-0.237,-0.037
18.128,-0.235,-0.025
18.132,-0.2,-0.015
18.136,-0.19,-0.015
18.14,-0.18,-0.013
18.144,-0.17,-0.007
18.148,-0.177,-0.005
18.152,-0.19,-0.02
18.156,-0.198,-0.013
18.16,-0.212,-0.025
18.164,-0.198,-0.018
18.168,-0.193,0.003
18.172,-0.17,0.013
18.176,-0.135,0.022
18.18,-0.128,0.022
18.184,-0.133,0.01
18.188,-0.172,0.007
18.192,-0.207,0.005
18.196,-0.207,0
18.2,-0.212,0.005
18.204,-0.193,0.035
18.208,-0.19,0.043
18.212,-0.185,0.058
18.216,-0.175,0.037
18.22,-0.16,0.025
18.224,-0.172,0.018
18.228,-0.163,0.03
18.232,-0.16,0.043
18.236,-0.168,0.043
18.24,-0.16,0.06
18.244,-0.145,0.048
18.248,-0.128,0.055
18.252,-0.122,0.045
18.256,-0.128,0.033
18.26,-0.133,0.04
18.264,-0.138,0.028
18.268,-0.138,0.04
18.272,-0.113,0.045
18.276,-0.107,0.052
18.28,-0.107,0.05
18.284,-0.125,0.043
18.288,-0.142,0.033
18.292,-0.155,0.03
18.296,-0.158,0.03
18.3,-0.163,0.022
18.304,-0.158,0.037
18.308,-0.155,0.037
18.312,-0.133,0.045
18.316,-0.145,0.05
18.32,-0.135,0.048
18.324,-0.145,0.035
18.328,-0.172,0.037
18.332,-0.172,0.058
18.336,-0.15,0.055
18.34,-0.138,0.068
18.344,-0.11,0.058
18.348,-0.095,0.052
18.352,-0.105,0.052
18.356,-0.14,0.043
18.36,-0.172,0.045
18.364,-0.182,0.052
18.368,-0.155,0.065
18.372,-0.135,0.083
18.376,-0.122,0.08
18.38,-0.12,0.08
18.384,-0.135,0.068
18.388,-0.172,0.065
18.392,-0.172,0.055
18.396,-0.177,0.052
18.4,-0.17,0.055
18.404,-0.142,0.058
18.408,-0.133,0.043
18.412,-0.133,0.055
18.416,-0.11,0.055
18.42,-0.1,0.033
18.424,-0.107,0.03
18.428,-0.122,0.03
18.432,-0.13,0.033
18.436,-0.14,0.058
18.44,-0.142,0.055
18.444,-0.133,0.077
18.448,-0.107,0.077
18.452,-0.083,0.055
18.456,-0.08,0.033
18.46,-0.092,0.037
18.464,-0.107,0.037
18.468,-0.122,0.052
18.472,-0.107,0.062
18.476,-0.07,0.062
18.48,-0.07,0.058
18.484,-0.107,0.048
18.488,-0.158,0.037
18.492,-0.198,0.043
18.496,-0.215,0.03
18.5,-0.19,0.037
18.504,-0.172,0.04
18.508,-0.135,0.052
18.512,-0.115,0.052
18.516,-0.128,0.05
18.52,-0.135,0.03
18.524,-0.163,0.028
18.528,-0.165,0.033
18.532,-0.168,0.037
18.536,-0.19,0.045
18.54,-0.177,0.055
18.544,-0.18,0.065
18.548,-0.16,0.048
18.552,-0.138,0.055
18.556,-0.138,0.043
18.56,-0.152,0.035
18.564,-0.172,0.043
18.568,-0.188,0.055
18.572,-0.188,0.06
18.576,-0.165,0.068
18.58,-0.163,0.062
18.584,-0.172,0.06
18.588,-0.195,0.068
18.592,-0.2,0.055
18.596,-0.217,0.062
18.6,-0.217,0.055
18.604,-0.205,0.083
18.608,-0.172,0.077
18.612,-0.145,0.068
18.616,-0.138,0.077
18.62,-0.155,0.06
18.624,-0.2,0.055
18.628,-0.233,0.06
18.632,-0.247,0.075
18.636,-0.265,0.085
18.64,-0.242,0.098
18.644,-0.235,0.105
18.648,-0.217,0.083
18.652,-0.212,0.065
18.656,-0.217,0.062
18.66,-0.225,0.058
18.664,-0.23,0.07
18.668,-0.24,0.075
18.672,-0.235,0.095
18.676,-0.24,0.098
18.68,-0.223,0.098
18.684,-0.237,0.095
18.688,-0.237,0.058
18.692,-0.24,0.055
18.696,-0.235,0.065
18.7,-0.225,0.077
18.704,-0.217,0.09
18.708,-0.2,0.085
18.712,-0.2,0.075
18.716,-0.207,0.077
18.72,-0.21,0.062
18.724,-0.225,0.065
18.728,-0.245,0.083
18.732,-0.263,0.072
18.736,-0.27,0.083
18.74,-0.265,0.098
18.744,-0.263,0.102
18.748,-0.263,0.098
18.752,-0.28,0.085
18.756,-0.282,0.068
18.76,-0.305,0.08
18.764,-0.302,0.075
18.768,-0.292,0.102
18.772,-0.26,0.1
18.776,-0.242,0.105
18.78,-0.235,0.087
18.784,-0.27,0.085
18.788,-0.3,0.077
18.792,-0.32,0.08
18.796,-0.33,0.083
18.8,-0.328,0.077
18.804,-0.315,0.1
18.808,-0.3,0.09
18.812,-0.305,0.1
18.816,-0.287,0.083
18.82,-0.287,0.09
18.824,-0.287,0.087
18.828,-0.292,0.083
18.832,-0.282,0.092
18.836,-0.295,0.107
18.84,-0.28,0.107
18.844,-0.285,0.098
18.848,-0.285,0.092
18.852,-0.292,0.085
18.856,-0.295,0.077
18.86,-0.302,0.085
18.864,-0.312,0.085
18.868,-0.29,0.102
18.872,-0.27,0.113
18.876,-0.237,0.11
18.88,-0.233,0.113
18.884,-0.245,0.107
18.888,-0.263,0.1
18.892,-0.282,0.092
18.896,-0.302,0.083
18.9,-0.297,0.098
18.904,-0.275,0.105
18.908,-0.28,0.128
18.912,-0.27,0.122
18.916,-0.273,0.105
18.92,-0.282,0.085
18.924,-0.305,0.07
18.928,-0.305,0.087
18.932,-0.312,0.1
18.936,-0.307,0.125
18.94,-0.305,0.133
18.944,-0.295,0.128
18.948,-0.29,0.115
18.952,-0.292,0.113
18.956,-0.315,0.105
18.96,-0.338,0.113
18.964,-0.375,0.115
18.968,-0.38,0.117
18.972,-0.357,0.128
18.976,-0.328,0.122
18.98,-0.29,0.122
18.984,-0.278,0.12
18.988,-0.273,0.115
18.992,-0.275,0.105
18.996,-0.282,0.1
19,-0.29,0.117
19.004,-0.285,0.122
19.008,-0.305,0.135
19.012,-0.302,0.138
19.016,-0.295,0.125
19.02,-0.312,0.115
19.024,-0.315,0.098
19.028,-0.32,0.098
19.032,-0.307,0.11
19.036,-0.318,0.11
19.04,-0.31,0.128
19.044,-0.32,0.133
19.048,-0.318,0.14
19.052,-0.328,0.128
19.056,-0.312,0.12
19.06,-0.32,0.1
19.064,-0.302,0.122
19.068,-0.31,0.125
19.072,-0.32,0.155
19.076,-0.31,0.135
19.08,-0.297,0.145
19.084,-0.29,0.13
19.088,-0.297,0.117
19.092,-0.312,0.122
19.096,-0.32,0.12
19.1,-0.33,0.122
19.104,-0.328,0.14
19.108,-0.312,0.138
19.112,-0.297,0.147
19.116,-0.29,0.135
19.12,-0.282,0.128
19.124,-0.275,0.113
19.128,-0.28,0.105
19.132,-0.285,0.117
19.136,-0.3,0.135
19.14,-0.305,0.158
19.144,-0.315,0.155
19.148,-0.292,0.16
19.152,-0.25,0.172
19.156,-0.195,0.228
19.16,-0.172,0.335
19.164,-0.155,0.468
19.168,-0.128,0.615
19.172,-0.072,0.718
19.176,-0.043,0.75
19.18,0.013,0.748
19.184,0.03,0.698
19.188,0.04,0.642
19.192,0.025,0.615
19.196,-0.015,0.6
19.2,-0.075,0.588
19.204,-0.158,0.588
19.208,-0.237,0.578
19.212,-0.29,0.557
19.216,-0.33,0.525
19.22,-0.343,0.495
19.224,-0.345,0.465
19.228,-0.36,0.415
19.232,-0.375,0.372
19.236,-0.38,0.318
19.24,-0.39,0.29
19.244,-0.383,0.247
19.248,-0.372,0.207
19.252,-0.352,0.17
19.256,-0.35,0.145
19.26,-0.36,0.125
19.264,-0.378,0.11
19.268,-0.398,0.098
19.272,-0.417,0.1
19.276,-0.41,0.085
19.28,-0.393,0.055
19.284,-0.357,0.052
19.288,-0.3,0.05
19.292,-0.285,0.035
19.296,-0.268,0.05
19.3,-0.282,0.04
19.304,-0.312,0.052
19.308,-0.347,0.052
19.312,-0.372,0.058
19.316,-0.385,0.052
19.32,-0.372,0.043
19.324,-0.347,0.025
19.328,-0.27,0.02
19.332,-0.207,0.03
19.336,-0.18,0.033
19.34,-0.188,0.033
19.344,-0.23,0.035
19.348,-0.273,0.022
19.352,-0.338,0.018
19.356,-0.398,0.013
19.36,-0.393,0.01
19.364,-0.347,0.01
19.368,-0.27,0.01
19.372,-0.21,0.013
19.376,-0.205,0.015
19.38,-0.223,0.005
19.384,-0.235,0
19.388,-0.24,-0.033
19.392,-0.268,-0.045
19.396,-0.278,-0.033
19.4,-0.285,-0.033
19.404,-0.282,-0.025
19.408,-0.287,-0.022
19.412,-0.287,-0.043
19.416,-0.28,-0.072
19.42,-0.245,-0.085
19.424,-0.242,-0.092
19.428,-0.212,-0.105
19.432,-0.203,-0.107
19.436,-0.16,-0.1
19.44,-0.133,-0.102
19.444,-0.128,-0.102
19.448,-0.155,-0.133
19.452,-0.182,-0.133
19.456,-0.175,-0.16
19.46,-0.177,-0.175
19.464,-0.152,-0.172
19.468,-0.152,-0.165
19.472,-0.16,-0.158
19.476,-0.175,-0.152
19.48,-0.19,-0.152
19.484,-0.2,-0.165
19.488,-0.182,-0.195
19.492,-0.128,-0.207
19.496,-0.08,-0.205
19.5,-0.02,-0.205
19.504,0.035,-0.193
19.508,0.07,-0.182
19.512,0.092,-0.2
19.516,0.06,-0.225
19.52,0.003,-0.235
19.524,-0.035,-0.223
19.528,-0.02,-0.19
19.532,0.028,-0.165
19.536,0.013,-0.128
19.54,-0.028,-0.115
19.544,-0.06,-0.135
19.548,-0.03,-0.145
19.552,0.055,-0.16
19.556,0.13,-0.145
19.56,0.155,-0.107
19.564,0.105,-0.08
19.568,0.037,-0.062
19.572,0.02,-0.043
19.576,0.08,-0.035
19.58,0.16,-0.04
19.584,0.19,-0.052
19.588,0.147,-0.045
19.592,0.08,-0.06
19.596,0.03,-0.035
19.6,0.05,-0.02
19.604,0.105,0.003
19.608,0.117,0.018
19.612,0.09,0.013
19.616,0.018,0.025
19.62,-0.04,0.015
19.624,-0.065,0.013
19.628,-0.033,0.015
19.632,0.01,0.03
19.636,0.007,0.037
19.64,-0.02,0.045
19.644,-0.037,0.025
19.648,-0.033,0.04
19.652,-0.01,0.018
19.656,0.033,0
19.66,0.065,0
19.664,0.072,-0.003
19.668,-0.003,0.005
19.672,-0.098,0
19.676,-0.193,0.01
19.68,-0.207,0.025
19.684,-0.135,0.03
19.688,-0.03,0.028
19.692,0.033,0.02
19.696,0.003,0.005
19.7,-0.11,0.018
19.704,-0.2,0.043
19.708,-0.225,0.07
19.712,-0.188,0.095
19.716,-0.14,0.08
19.72,-0.092,0.052
19.724,-0.035,0.018
19.728,0.065,-0.007
19.732,0.138,0.003
19.736,0.145,0.033
19.74,0.045,0.07
19.744,-0.1,0.087
19.748,-0.165,0.055
19.752,-0.107,0.033
19.756,0.018,-0.005
19.76,0.1,-0.015
19.764,0.03,0
19.768,-0.102,0.037
19.772,-0.198,0.062
19.776,-0.185,0.068
19.78,-0.092,0.04
19.784,0.018,0.003
19.788,0.107,-0.01
19.792,0.177,-0.005
19.796,0.168,0.025
19.8,0.05,0.048
19.804,-0.1,0.058
19.808,-0.19,0.045
19.812,-0.147,0.033
19.816,-0.062,0
19.82,0.025,-0.018
19.824,0.018,-0.033
19.828,-0.04,-0.007
19.832,-0.11,0.022
19.836,-0.12,0.043
19.84,-0.072,0.033
19.844,-0.03,-0.035
19.848,0.003,-0.077
19.852,0.005,-0.128
19.856,0,-0.095
19.86,-0.03,-0.007
19.864,-0.06,0.077
19.868,-0.09,0.11
19.872,-0.095,0.085
19.876,-0.092,0.045
19.88,-0.065,0.003
19.884,-0.025,-0.01
19.888,0.018,-0.022
19.892,0.035,-0.025
19.896,0.018,-0.022
19.9,-0.02,-0.025
19.904,-0.058,-0.025
19.908,-0.072,-0.013
19.912,-0.052,-0.01
19.916,-0.062,-0.02
19.92,-0.075,-0.028
19.924,-0.08,-0.037
19.928,-0.04,-0.035
19.932,-0.005,-0.04
19.936,-0.007,-0.03
19.94,-0.015,-0.015
19.944,-0.035,-0.013
19.948,-0.045,-0.02
19.952,-0.11,-0.035
19.956,-0.17,-0.045
19.96,-0.203,-0.055
19.964,-0.185,-0.045
19.968,-0.163,-0.045
19.972,-0.117,-0.045
19.976,-0.058,-0.068
19.98,-0.052,-0.083
19.984,-0.07,-0.105
19.988,-0.115,-0.117
19.992,-0.107,-0.115
19.996,-0.07,-0.06
20,-0.065,-0.018
20.004,-0.122,0.01
20.008,-0.19,0.022
20.012,-0.198,0.007
20.016,-0.168,-0.025
20.02,-0.12,-0.052
20.024,-0.11,-0.077
20.028,-0.12,-0.068
20.032,-0.145,-0.062
20.036,-0.145,-0.05
20.04,-0.12,-0.048
20.044,-0.07,-0.045
20.048,-0.04,-0.045
20.052,-0.043,-0.065
20.056,-0.085,-0.072
20.06,-0.12,-0.08
20.064,-0.147,-0.068
20.068,-0.172,-0.062
20.072,-0.17,-0.052
20.076,-0.152,-0.065
20.08,-0.122,-0.065
20.084,-0.107,-0.075
20.088,-0.142,-0.085
20.092,-0.188,-0.08
20.096,-0.215,-0.087
20.1,-0.2,-0.065
20.104,-0.16,-0.058
20.108,-0.13,-0.062
20.112,-0.1,-0.068
20.116,-0.095,-0.075
20.12,-0.113,-0.08
20.124,-0.152,-0.09
20.128,-0.177,-0.077
20.132,-0.21,-0.08
20.136,-0.223,-0.08
20.14,-0.23,-0.08
20.144,-0.23,-0.105
20.148,-0.233,-0.102
20.152,-0.23,-0.095
20.156,-0.19,-0.065
20.16,-0.177,-0.052
20.164,-0.175,-0.045
20.168,-0.21,-0.033
20.172,-0.203,-0.045
20.176,-0.16,-0.052
20.18,-0.13,-0.045
20.184,-0.125,-0.072
20.188,-0.182,-0.085
20.192,-0.24,-0.087
20.196,-0.273,-0.083
20.2,-0.255,-0.077
20.204,-0.188,-0.07
20.208,-0.128,-0.085
20.212,-0.102,-0.08
20.216,-0.128,-0.083
20.22,-0.195,-0.08
20.224,-0.233,-0.083
20.228,-0.247,-0.077
20.232,-0.233,-0.075
20.236,-0.223,-0.068
20.24,-0.22,-0.058
20.244,-0.2,-0.05
20.248,-0.175,-0.07
20.252,-0.138,-0.075
20.256,-0.128,-0.08
20.26,-0.168,-0.095
20.264,-0.228,-0.077
20.268,-0.3,-0.06
20.272,-0.33,-0.048
20.276,-0.307,-0.045
20.28,-0.27,-0.055
20.284,-0.2,-0.072
20.288,-0.18,-0.092
20.292,-0.172,-0.11
20.296,-0.2,-0.12
20.3,-0.233,-0.113
20.304,-0.268,-0.083
20.308,-0.278,-0.058
20.312,-0.258,-0.033
20.316,-0.228,-0.043
20.32,-0.198,-0.065
20.324,-0.18,-0.048
20.328,-0.18,-0.048
20.332,-0.182,-0.065
20.336,-0.18,-0.048
20.34,-0.19,-0.06
20.344,-0.228,-0.06
20.348,-0.25,-0.06
20.352,-0.265,-0.075
20.356,-0.255,-0.075
20.36,-0.25,-0.072
20.364,-0.247,-0.07
20.368,-0.245,-0.068
20.372,-0.247,-0.062
20.376,-0.233,-0.05
20.38,-0.21,-0.058
20.384,-0.19,-0.062
20.388,-0.138,-0.07
20.392,-0.113,-0.08
20.396,-0.125,-0.087
20.4,-0.19,-0.08
20.404,-0.265,-0.055
20.408,-0.32,-0.055
20.412,-0.328,-0.055
20.416,-0.292,-0.065
20.42,-0.23,-0.08
20.424,-0.2,-0.08
20.428,-0.203,-0.092
20.432,-0.215,-0.095
20.436,-0.225,-0.09
20.44,-0.212,-0.08
20.444,-0.188,-0.068
20.448,-0.17,-0.052
20.452,-0.2,-0.04
20.456,-0.237,-0.04
20.46,-0.275,-0.05
20.464,-0.28,-0.055
20.468,-0.28,-0.06
20.472,-0.278,-0.04
20.476,-0.255,-0.05
